time_s,I,II,III,aVR,aVL,aVF,V1,V2,V3,V4,V5,V6,V3R,V4R,V7
0.0,2.504869815534864e-39,9.348063935687707e-39,6.843194120152842e-39,-5.926466875611286e-39,-2.1691621523089892e-39,9.348301417921796e-39,3.8553225512162125e-39,5.049174811483659e-39,6.001075227119399e-39,4.841363514539074e-39,3.923603646590456e-39,2.997308641720057e-39,3.045278959055768e-39,1.1255711648932029e-39,1.4277070576531241e-40
0.001,0.12566365446647032,0.12566365446647032,0.12566365446647032,0.12566365446647032,0.12566365446647032,0.12566365446647032,0.12566365446647032,0.12566365446647032,0.12566365446647032,0.12566365446647032,0.12566365446647032,0.12566365446647032,0.12566365446647032,0.12566365446647032,0.12566365446647032
0.002,0.2513269988703651,0.2513269988703651,0.2513269988703651,0.2513269988703651,0.2513269988703651,0.2513269988703651,0.2513269988703651,0.2513269988703651,0.2513269988703651,0.2513269988703651,0.2513269988703651,0.2513269988703651,0.2513269988703651,0.2513269988703651,0.2513269988703651
0.003,0.3769897231498738,0.3769897231498738,0.3769897231498738,0.3769897231498738,0.3769897231498738,0.3769897231498738,0.3769897231498738,0.3769897231498738,0.3769897231498738,0.3769897231498738,0.3769897231498738,0.3769897231498738,0.3769897231498738,0.3769897231498738,0.3769897231498738
0.004,0.5026515172447161,0.5026515172447161,0.5026515172447161,0.5026515172447161,0.5026515172447161,0.5026515172447161,0.5026515172447161,0.5026515172447161,0.5026515172447161,0.5026515172447161,0.5026515172447161,0.5026515172447161,0.5026515172447161,0.5026515172447161,0.5026515172447161
0.005,0.6283120710969068,0.6283120710969068,0.6283120710969068,0.6283120710969068,0.6283120710969068,0.6283120710969068,0.6283120710969068,0.6283120710969068,0.6283120710969068,0.6283120710969068,0.6283120710969068,0.6283120710969068,0.6283120710969068,0.6283120710969068,0.6283120710969068
0.006,0.7539710746515205,0.7539710746515205,0.7539710746515205,0.7539710746515205,0.7539710746515205,0.7539710746515205,0.7539710746515205,0.7539710746515205,0.7539710746515205,0.7539710746515205,0.7539710746515205,0.7539710746515205,0.7539710746515205,0.7539710746515205,0.7539710746515205
0.007,0.8796282178574577,0.8796282178574577,0.8796282178574577,0.8796282178574577,0.8796282178574577,0.8796282178574577,0.8796282178574577,0.8796282178574577,0.8796282178574577,0.8796282178574577,0.8796282178574577,0.8796282178574577,0.8796282178574577,0.8796282178574577,0.8796282178574577
0.008,1.0052831906682087,1.0052831906682087,1.0052831906682087,1.0052831906682087,1.0052831906682087,1.0052831906682087,1.0052831906682087,1.0052831906682087,1.0052831906682087,1.0052831906682087,1.0052831906682087,1.0052831906682087,1.0052831906682087,1.0052831906682087,1.0052831906682087
0.009000000000000001,1.130935683042619,1.130935683042619,1.130935683042619,1.130935683042619,1.130935683042619,1.130935683042619,1.130935683042619,1.130935683042619,1.130935683042619,1.130935683042619,1.130935683042619,1.130935683042619,1.130935683042619,1.130935683042619,1.130935683042619
0.01,1.256585384945654,1.256585384945654,1.256585384945654,1.256585384945654,1.256585384945654,1.256585384945654,1.256585384945654,1.256585384945654,1.256585384945654,1.256585384945654,1.256585384945654,1.256585384945654,1.256585384945654,1.256585384945654,1.256585384945654
0.011,1.3822319863491652,1.3822319863491652,1.3822319863491652,1.3822319863491652,1.3822319863491652,1.3822319863491652,1.3822319863491652,1.3822319863491652,1.3822319863491652,1.3822319863491652,1.3822319863491652,1.3822319863491652,1.3822319863491652,1.3822319863491652,1.3822319863491652
0.012,1.507875177232654,1.507875177232654,1.507875177232654,1.507875177232654,1.507875177232654,1.507875177232654,1.507875177232654,1.507875177232654,1.507875177232654,1.507875177232654,1.507875177232654,1.507875177232654,1.507875177232654,1.507875177232654,1.507875177232654
0.013000000000000001,1.6335146475840367,1.6335146475840367,1.6335146475840367,1.6335146475840367,1.6335146475840367,1.6335146475840367,1.6335146475840367,1.6335146475840367,1.6335146475840367,1.6335146475840367,1.6335146475840367,1.6335146475840367,1.6335146475840367,1.6335146475840367,1.6335146475840367
0.014,1.7591500874004085,1.7591500874004085,1.7591500874004085,1.7591500874004085,1.7591500874004085,1.7591500874004085,1.7591500874004085,1.7591500874004085,1.7591500874004085,1.7591500874004085,1.7591500874004085,1.7591500874004085,1.7591500874004085,1.7591500874004085,1.7591500874004085
0.015,1.884781186688812,1.884781186688812,1.884781186688812,1.884781186688812,1.884781186688812,1.884781186688812,1.884781186688812,1.884781186688812,1.884781186688812,1.884781186688812,1.884781186688812,1.884781186688812,1.884781186688812,1.884781186688812,1.884781186688812
0.016,2.0104076354669984,2.0104076354669984,2.0104076354669984,2.0104076354669984,2.0104076354669984,2.0104076354669984,2.0104076354669984,2.0104076354669984,2.0104076354669984,2.0104076354669984,2.0104076354669984,2.0104076354669984,2.0104076354669984,2.0104076354669984,2.0104076354669984
0.017,2.1360291237641924,2.1360291237641924,2.1360291237641924,2.1360291237641924,2.1360291237641924,2.1360291237641924,2.1360291237641924,2.1360291237641924,2.1360291237641924,2.1360291237641924,2.1360291237641924,2.1360291237641924,2.1360291237641924,2.1360291237641924,2.1360291237641924
0.018000000000000002,2.2616453416218603,2.2616453416218603,2.2616453416218603,2.2616453416218603,2.2616453416218603,2.2616453416218603,2.2616453416218603,2.2616453416218603,2.2616453416218603,2.2616453416218603,2.2616453416218603,2.2616453416218603,2.2616453416218603,2.2616453416218603,2.2616453416218603
0.019,2.387255979094471,2.387255979094471,2.387255979094471,2.387255979094471,2.387255979094471,2.387255979094471,2.387255979094471,2.387255979094471,2.387255979094471,2.387255979094471,2.387255979094471,2.387255979094471,2.387255979094471,2.387255979094471,2.387255979094471
0.02,2.5128607262502634,2.5128607262502634,2.5128607262502634,2.5128607262502634,2.5128607262502634,2.5128607262502634,2.5128607262502634,2.5128607262502634,2.5128607262502634,2.5128607262502634,2.5128607262502634,2.5128607262502634,2.5128607262502634,2.5128607262502634,2.5128607262502634
0.021,2.6384592731720105,2.6384592731720105,2.6384592731720105,2.6384592731720105,2.6384592731720105,2.6384592731720105,2.6384592731720105,2.6384592731720105,2.6384592731720105,2.6384592731720105,2.6384592731720105,2.6384592731720105,2.6384592731720105,2.6384592731720105,2.6384592731720105
0.022,2.7640513099577815,2.7640513099577815,2.7640513099577815,2.7640513099577815,2.7640513099577815,2.7640513099577815,2.7640513099577815,2.7640513099577815,2.7640513099577815,2.7640513099577815,2.7640513099577815,2.7640513099577815,2.7640513099577815,2.7640513099577815,2.7640513099577815
0.023,2.8896365267217123,2.8896365267217123,2.8896365267217123,2.8896365267217123,2.8896365267217123,2.8896365267217123,2.8896365267217123,2.8896365267217123,2.8896365267217123,2.8896365267217123,2.8896365267217123,2.8896365267217123,2.8896365267217123,2.8896365267217123,2.8896365267217123
0.024,3.0152146135947633,3.0152146135947633,3.0152146135947633,3.0152146135947633,3.0152146135947633,3.0152146135947633,3.0152146135947633,3.0152146135947633,3.0152146135947633,3.0152146135947633,3.0152146135947633,3.0152146135947633,3.0152146135947633,3.0152146135947633,3.0152146135947633
0.025,3.140785260725489,3.140785260725489,3.140785260725489,3.140785260725489,3.140785260725489,3.140785260725489,3.140785260725489,3.140785260725489,3.140785260725489,3.140785260725489,3.140785260725489,3.140785260725489,3.140785260725489,3.140785260725489,3.140785260725489
0.026000000000000002,3.2663481582808003,3.2663481582808003,3.2663481582808003,3.2663481582808003,3.2663481582808003,3.2663481582808003,3.2663481582808003,3.2663481582808003,3.2663481582808003,3.2663481582808003,3.2663481582808003,3.2663481582808003,3.2663481582808003,3.2663481582808003,3.2663481582808003
0.027,3.3919029964467278,3.3919029964467278,3.3919029964467278,3.3919029964467278,3.3919029964467278,3.3919029964467278,3.3919029964467278,3.3919029964467278,3.3919029964467278,3.3919029964467278,3.3919029964467278,3.3919029964467278,3.3919029964467278,3.3919029964467278,3.3919029964467278
0.028,3.517449465429192,3.517449465429192,3.517449465429192,3.517449465429192,3.517449465429192,3.517449465429192,3.517449465429192,3.517449465429192,3.517449465429192,3.517449465429192,3.517449465429192,3.517449465429192,3.517449465429192,3.517449465429192,3.517449465429192
0.029,3.6429872554547598,3.6429872554547598,3.6429872554547598,3.6429872554547598,3.6429872554547598,3.6429872554547598,3.6429872554547598,3.6429872554547598,3.6429872554547598,3.6429872554547598,3.6429872554547598,3.6429872554547598,3.6429872554547598,3.6429872554547598,3.6429872554547598
0.03,3.7685160567714124,3.7685160567714124,3.7685160567714124,3.7685160567714124,3.7685160567714124,3.7685160567714124,3.7685160567714124,3.7685160567714124,3.7685160567714124,3.7685160567714124,3.7685160567714124,3.7685160567714124,3.7685160567714124,3.7685160567714124,3.7685160567714124
0.031,3.8940355596493124,3.8940355596493124,3.8940355596493124,3.8940355596493124,3.8940355596493124,3.8940355596493124,3.8940355596493124,3.8940355596493124,3.8940355596493124,3.8940355596493124,3.8940355596493124,3.8940355596493124,3.8940355596493124,3.8940355596493124,3.8940355596493124
0.032,4.019545454381564,4.019545454381564,4.019545454381564,4.019545454381564,4.019545454381564,4.019545454381564,4.019545454381564,4.019545454381564,4.019545454381564,4.019545454381564,4.019545454381564,4.019545454381564,4.019545454381564,4.019545454381564,4.019545454381564
0.033,4.145045431284979,4.145045431284979,4.145045431284979,4.145045431284979,4.145045431284979,4.145045431284979,4.145045431284979,4.145045431284979,4.145045431284979,4.145045431284979,4.145045431284979,4.145045431284979,4.145045431284979,4.145045431284979,4.145045431284979
0.034,4.270535180700838,4.270535180700838,4.270535180700838,4.270535180700838,4.270535180700838,4.270535180700838,4.270535180700838,4.270535180700838,4.270535180700838,4.270535180700838,4.270535180700838,4.270535180700838,4.270535180700838,4.270535180700838,4.270535180700838
0.035,4.39601439299566,4.39601439299566,4.39601439299566,4.39601439299566,4.39601439299566,4.39601439299566,4.39601439299566,4.39601439299566,4.39601439299566,4.39601439299566,4.39601439299566,4.39601439299566,4.39601439299566,4.39601439299566,4.39601439299566
0.036000000000000004,4.521482758561962,4.521482758561962,4.521482758561962,4.521482758561962,4.521482758561962,4.521482758561962,4.521482758561962,4.521482758561962,4.521482758561962,4.521482758561962,4.521482758561962,4.521482758561962,4.521482758561962,4.521482758561962,4.521482758561962
0.037,4.646939967819025,4.646939967819025,4.646939967819025,4.646939967819025,4.646939967819025,4.646939967819025,4.646939967819025,4.646939967819025,4.646939967819025,4.646939967819025,4.646939967819025,4.646939967819025,4.646939967819025,4.646939967819025,4.646939967819025
0.038,4.772385711213656,4.772385711213656,4.772385711213656,4.772385711213656,4.772385711213656,4.772385711213656,4.772385711213656,4.772385711213656,4.772385711213656,4.772385711213656,4.772385711213656,4.772385711213656,4.772385711213656,4.772385711213656,4.772385711213656
0.039,4.897819679220953,4.897819679220953,4.897819679220953,4.897819679220953,4.897819679220953,4.897819679220953,4.897819679220953,4.897819679220953,4.897819679220953,4.897819679220953,4.897819679220953,4.897819679220953,4.897819679220953,4.897819679220953,4.897819679220953
0.04,5.02324156234507,5.02324156234507,5.02324156234507,5.02324156234507,5.02324156234507,5.02324156234507,5.02324156234507,5.02324156234507,5.02324156234507,5.02324156234507,5.02324156234507,5.02324156234507,5.02324156234507,5.02324156234507,5.02324156234507
0.041,5.148651051119978,5.148651051119978,5.148651051119978,5.148651051119978,5.148651051119978,5.148651051119978,5.148651051119978,5.148651051119978,5.148651051119978,5.148651051119978,5.148651051119978,5.148651051119978,5.148651051119978,5.148651051119978,5.148651051119978
0.042,5.2740478361102285,5.2740478361102285,5.2740478361102285,5.2740478361102285,5.2740478361102285,5.2740478361102285,5.2740478361102285,5.2740478361102285,5.2740478361102285,5.2740478361102285,5.2740478361102285,5.2740478361102285,5.2740478361102285,5.2740478361102285,5.2740478361102285
0.043000000000000003,5.399431607911723,5.399431607911723,5.399431607911723,5.399431607911723,5.399431607911723,5.399431607911723,5.399431607911723,5.399431607911723,5.399431607911723,5.399431607911723,5.399431607911723,5.399431607911723,5.399431607911723,5.399431607911723,5.399431607911723
0.044,5.5248020571524625,5.5248020571524625,5.5248020571524625,5.5248020571524625,5.5248020571524625,5.5248020571524625,5.5248020571524625,5.5248020571524625,5.5248020571524625,5.5248020571524625,5.5248020571524625,5.5248020571524625,5.5248020571524625,5.5248020571524625,5.5248020571524625
0.045,5.650158874493334,5.650158874493334,5.650158874493334,5.650158874493334,5.650158874493334,5.650158874493334,5.650158874493334,5.650158874493334,5.650158874493334,5.650158874493334,5.650158874493334,5.650158874493334,5.650158874493334,5.650158874493334,5.650158874493334
0.046,5.775501750628847,5.775501750628847,5.775501750628847,5.775501750628847,5.775501750628847,5.775501750628847,5.775501750628847,5.775501750628847,5.775501750628847,5.775501750628847,5.775501750628847,5.775501750628847,5.775501750628847,5.775501750628847,5.775501750628847
0.047,5.900830376287917,5.900830376287917,5.900830376287917,5.900830376287917,5.900830376287917,5.900830376287917,5.900830376287917,5.900830376287917,5.900830376287917,5.900830376287917,5.900830376287917,5.900830376287917,5.900830376287917,5.900830376287917,5.900830376287917
0.048,6.026144442234617,6.026144442234617,6.026144442234617,6.026144442234617,6.026144442234617,6.026144442234617,6.026144442234617,6.026144442234617,6.026144442234617,6.026144442234617,6.026144442234617,6.026144442234617,6.026144442234617,6.026144442234617,6.026144442234617
0.049,6.1514436392689475,6.1514436392689475,6.1514436392689475,6.1514436392689475,6.1514436392689475,6.1514436392689475,6.1514436392689475,6.1514436392689475,6.1514436392689475,6.1514436392689475,6.1514436392689475,6.1514436392689475,6.1514436392689475,6.1514436392689475,6.1514436392689475
0.05,6.276727658227595,6.276727658227595,6.276727658227595,6.276727658227595,6.276727658227595,6.276727658227595,6.276727658227595,6.276727658227595,6.276727658227595,6.276727658227595,6.276727658227595,6.276727658227595,6.276727658227595,6.276727658227595,6.276727658227595
0.051000000000000004,6.401996189984697,6.401996189984697,6.401996189984697,6.401996189984697,6.401996189984697,6.401996189984697,6.401996189984697,6.401996189984697,6.401996189984697,6.401996189984697,6.401996189984697,6.401996189984697,6.401996189984697,6.401996189984697,6.401996189984697
0.052000000000000005,6.5272489254526045,6.5272489254526045,6.5272489254526045,6.5272489254526045,6.5272489254526045,6.5272489254526045,6.5272489254526045,6.5272489254526045,6.5272489254526045,6.5272489254526045,6.5272489254526045,6.5272489254526045,6.5272489254526045,6.5272489254526045,6.5272489254526045
0.053,6.652485555582642,6.652485555582642,6.652485555582642,6.652485555582642,6.652485555582642,6.652485555582642,6.652485555582642,6.652485555582642,6.652485555582642,6.652485555582642,6.652485555582642,6.652485555582642,6.652485555582642,6.652485555582642,6.652485555582642
0.054,6.777705771365875,6.777705771365875,6.777705771365875,6.777705771365875,6.777705771365875,6.777705771365875,6.777705771365875,6.777705771365875,6.777705771365875,6.777705771365875,6.777705771365875,6.777705771365875,6.777705771365875,6.777705771365875,6.777705771365875
0.055,6.90290926383387,6.90290926383387,6.90290926383387,6.90290926383387,6.90290926383387,6.90290926383387,6.90290926383387,6.90290926383387,6.90290926383387,6.90290926383387,6.90290926383387,6.90290926383387,6.90290926383387,6.90290926383387,6.90290926383387
0.056,7.028095724059453,7.028095724059453,7.028095724059453,7.028095724059453,7.028095724059453,7.028095724059453,7.028095724059453,7.028095724059453,7.028095724059453,7.028095724059453,7.028095724059453,7.028095724059453,7.028095724059453,7.028095724059453,7.028095724059453
0.057,7.153264843157482,7.153264843157482,7.153264843157482,7.153264843157482,7.153264843157482,7.153264843157482,7.153264843157482,7.153264843157482,7.153264843157482,7.153264843157482,7.153264843157482,7.153264843157482,7.153264843157482,7.153264843157482,7.153264843157482
0.058,7.278416312285594,7.278416312285594,7.278416312285594,7.278416312285594,7.278416312285594,7.278416312285594,7.278416312285594,7.278416312285594,7.278416312285594,7.278416312285594,7.278416312285594,7.278416312285594,7.278416312285594,7.278416312285594,7.278416312285594
0.059000000000000004,7.4035498226449805,7.4035498226449805,7.4035498226449805,7.4035498226449805,7.4035498226449805,7.4035498226449805,7.4035498226449805,7.4035498226449805,7.4035498226449805,7.4035498226449805,7.4035498226449805,7.4035498226449805,7.4035498226449805,7.4035498226449805,7.4035498226449805
0.06,7.528665065481145,7.528665065481145,7.528665065481145,7.528665065481145,7.528665065481145,7.528665065481145,7.528665065481145,7.528665065481145,7.528665065481145,7.528665065481145,7.528665065481145,7.528665065481145,7.528665065481145,7.528665065481145,7.528665065481145
0.061,7.6537617320846625,7.6537617320846625,7.6537617320846625,7.6537617320846625,7.6537617320846625,7.6537617320846625,7.6537617320846625,7.6537617320846625,7.6537617320846625,7.6537617320846625,7.6537617320846625,7.6537617320846625,7.6537617320846625,7.6537617320846625,7.6537617320846625
0.062,7.7788395137919455,7.7788395137919455,7.7788395137919455,7.7788395137919455,7.7788395137919455,7.7788395137919455,7.7788395137919455,7.7788395137919455,7.7788395137919455,7.7788395137919455,7.7788395137919455,7.7788395137919455,7.7788395137919455,7.7788395137919455,7.7788395137919455
0.063,7.903898101986001,7.903898101986001,7.903898101986001,7.903898101986001,7.903898101986001,7.903898101986001,7.903898101986001,7.903898101986001,7.903898101986001,7.903898101986001,7.903898101986001,7.903898101986001,7.903898101986001,7.903898101986001,7.903898101986001
0.064,8.028937188097192,8.028937188097192,8.028937188097192,8.028937188097192,8.028937188097192,8.028937188097192,8.028937188097192,8.028937188097192,8.028937188097192,8.028937188097192,8.028937188097192,8.028937188097192,8.028937188097192,8.028937188097192,8.028937188097192
0.065,8.153956463604002,8.153956463604002,8.153956463604002,8.153956463604002,8.153956463604002,8.153956463604002,8.153956463604002,8.153956463604002,8.153956463604002,8.153956463604002,8.153956463604002,8.153956463604002,8.153956463604002,8.153956463604002,8.153956463604002
0.066,8.278955620033802,8.278955620033802,8.278955620033802,8.278955620033802,8.278955620033802,8.278955620033802,8.278955620033802,8.278955620033802,8.278955620033802,8.278955620033802,8.278955620033802,8.278955620033802,8.278955620033802,8.278955620033802,8.278955620033802
0.067,8.403934348963595,8.403934348963595,8.403934348963595,8.403934348963595,8.403934348963595,8.403934348963595,8.403934348963595,8.403934348963595,8.403934348963595,8.403934348963595,8.403934348963595,8.403934348963595,8.403934348963595,8.403934348963595,8.403934348963595
0.068,8.528892342020793,8.528892342020793,8.528892342020793,8.528892342020793,8.528892342020793,8.528892342020793,8.528892342020793,8.528892342020793,8.528892342020793,8.528892342020793,8.528892342020793,8.528892342020793,8.528892342020793,8.528892342020793,8.528892342020793
0.069,8.65382929088397,8.65382929088397,8.65382929088397,8.65382929088397,8.65382929088397,8.65382929088397,8.65382929088397,8.65382929088397,8.65382929088397,8.65382929088397,8.65382929088397,8.65382929088397,8.65382929088397,8.65382929088397,8.65382929088397
0.07,8.778744887283622,8.778744887283622,8.778744887283622,8.778744887283622,8.778744887283622,8.778744887283622,8.778744887283622,8.778744887283622,8.778744887283622,8.778744887283622,8.778744887283622,8.778744887283622,8.778744887283622,8.778744887283622,8.778744887283622
0.07100000000000001,8.903638823002936,8.903638823002936,8.903638823002936,8.903638823002936,8.903638823002936,8.903638823002936,8.903638823002936,8.903638823002936,8.903638823002936,8.903638823002936,8.903638823002936,8.903638823002936,8.903638823002936,8.903638823002936,8.903638823002936
0.07200000000000001,9.028510789878535,9.028510789878535,9.028510789878535,9.028510789878535,9.028510789878535,9.028510789878535,9.028510789878535,9.028510789878535,9.028510789878535,9.028510789878535,9.028510789878535,9.028510789878535,9.028510789878535,9.028510789878535,9.028510789878535
0.073,9.153360479801258,9.153360479801258,9.153360479801258,9.153360479801258,9.153360479801258,9.153360479801258,9.153360479801258,9.153360479801258,9.153360479801258,9.153360479801258,9.153360479801258,9.153360479801258,9.153360479801258,9.153360479801258,9.153360479801258
0.074,9.278187584716909,9.278187584716909,9.278187584716909,9.278187584716909,9.278187584716909,9.278187584716909,9.278187584716909,9.278187584716909,9.278187584716909,9.278187584716909,9.278187584716909,9.278187584716909,9.278187584716909,9.278187584716909,9.278187584716909
0.075,9.402991796627012,9.402991796627012,9.402991796627012,9.402991796627012,9.402991796627012,9.402991796627012,9.402991796627012,9.402991796627012,9.402991796627012,9.402991796627012,9.402991796627012,9.402991796627012,9.402991796627012,9.402991796627012,9.402991796627012
0.076,9.527772807589578,9.527772807589578,9.527772807589578,9.527772807589578,9.527772807589578,9.527772807589578,9.527772807589578,9.527772807589578,9.527772807589578,9.527772807589578,9.527772807589578,9.527772807589578,9.527772807589578,9.527772807589578,9.527772807589578
0.077,9.652530309719872,9.652530309719872,9.652530309719872,9.652530309719872,9.652530309719872,9.652530309719872,9.652530309719872,9.652530309719872,9.652530309719872,9.652530309719872,9.652530309719872,9.652530309719872,9.652530309719872,9.652530309719872,9.652530309719872
0.078,9.777263995191154,9.777263995191154,9.777263995191154,9.777263995191154,9.777263995191154,9.777263995191154,9.777263995191154,9.777263995191154,9.777263995191154,9.777263995191154,9.777263995191154,9.777263995191154,9.777263995191154,9.777263995191154,9.777263995191154
0.079,9.901973556235458,9.901973556235458,9.901973556235458,9.901973556235458,9.901973556235458,9.901973556235458,9.901973556235458,9.901973556235458,9.901973556235458,9.901973556235458,9.901973556235458,9.901973556235458,9.901973556235458,9.901973556235458,9.901973556235458
0.08,10.02665868514434,10.02665868514434,10.02665868514434,10.02665868514434,10.02665868514434,10.02665868514434,10.02665868514434,10.02665868514434,10.02665868514434,10.02665868514434,10.02665868514434,10.02665868514434,10.02665868514434,10.02665868514434,10.02665868514434
0.081,10.151319074269633,10.151319074269633,10.151319074269633,10.151319074269633,10.151319074269633,10.151319074269633,10.151319074269633,10.151319074269633,10.151319074269633,10.151319074269633,10.151319074269633,10.151319074269633,10.151319074269633,10.151319074269633,10.151319074269633
0.082,10.275954416024229,10.275954416024229,10.275954416024229,10.275954416024229,10.275954416024229,10.275954416024229,10.275954416024229,10.275954416024229,10.275954416024229,10.275954416024229,10.275954416024229,10.275954416024229,10.275954416024229,10.275954416024229,10.275954416024229
0.083,10.400564402882802,10.400564402882802,10.400564402882802,10.400564402882802,10.400564402882802,10.400564402882802,10.400564402882802,10.400564402882802,10.400564402882802,10.400564402882802,10.400564402882802,10.400564402882802,10.400564402882802,10.400564402882802,10.400564402882802
0.084,10.5251487273826,10.5251487273826,10.5251487273826,10.5251487273826,10.5251487273826,10.5251487273826,10.5251487273826,10.5251487273826,10.5251487273826,10.5251487273826,10.5251487273826,10.5251487273826,10.5251487273826,10.5251487273826,10.5251487273826
0.085,10.64970708212419,10.64970708212419,10.64970708212419,10.64970708212419,10.64970708212419,10.64970708212419,10.64970708212419,10.64970708212419,10.64970708212419,10.64970708212419,10.64970708212419,10.64970708212419,10.64970708212419,10.64970708212419,10.64970708212419
0.08600000000000001,10.774239159772208,10.774239159772208,10.774239159772208,10.774239159772208,10.774239159772208,10.774239159772208,10.774239159772208,10.774239159772208,10.774239159772208,10.774239159772208,10.774239159772208,10.774239159772208,10.774239159772208,10.774239159772208,10.774239159772208
0.08700000000000001,10.898744653056138,10.898744653056138,10.898744653056138,10.898744653056138,10.898744653056138,10.898744653056138,10.898744653056138,10.898744653056138,10.898744653056138,10.898744653056138,10.898744653056138,10.898744653056138,10.898744653056138,10.898744653056138,10.898744653056138
0.088,11.023223254771043,11.023223254771043,11.023223254771043,11.023223254771043,11.023223254771043,11.023223254771043,11.023223254771043,11.023223254771043,11.023223254771043,11.023223254771043,11.023223254771043,11.023223254771043,11.023223254771043,11.023223254771043,11.023223254771043
0.089,11.14767465777836,11.14767465777836,11.14767465777836,11.14767465777836,11.14767465777836,11.14767465777836,11.14767465777836,11.14767465777836,11.14767465777836,11.14767465777836,11.14767465777836,11.14767465777836,11.14767465777836,11.14767465777836,11.14767465777836
0.09,11.272098555006613,11.272098555006613,11.272098555006613,11.272098555006613,11.272098555006613,11.272098555006613,11.272098555006613,11.272098555006613,11.272098555006613,11.272098555006613,11.272098555006613,11.272098555006613,11.272098555006613,11.272098555006613,11.272098555006613
0.091,11.396494639452207,11.396494639452207,11.396494639452207,11.396494639452207,11.396494639452207,11.396494639452207,11.396494639452207,11.396494639452207,11.396494639452207,11.396494639452207,11.396494639452207,11.396494639452207,11.396494639452207,11.396494639452207,11.396494639452207
0.092,11.520862604180174,11.520862604180174,11.520862604180174,11.520862604180174,11.520862604180174,11.520862604180174,11.520862604180174,11.520862604180174,11.520862604180174,11.520862604180174,11.520862604180174,11.520862604180174,11.520862604180174,11.520862604180174,11.520862604180174
0.093,11.645202142324916,11.645202142324916,11.645202142324916,11.645202142324916,11.645202142324916,11.645202142324916,11.645202142324916,11.645202142324916,11.645202142324916,11.645202142324916,11.645202142324916,11.645202142324916,11.645202142324916,11.645202142324916,11.645202142324916
0.094,11.76951294709099,11.76951294709099,11.76951294709099,11.76951294709099,11.76951294709099,11.76951294709099,11.76951294709099,11.76951294709099,11.76951294709099,11.76951294709099,11.76951294709099,11.76951294709099,11.76951294709099,11.76951294709099,11.76951294709099
0.095,11.893794711753838,11.893794711753838,11.893794711753838,11.893794711753838,11.893794711753838,11.893794711753838,11.893794711753838,11.893794711753838,11.893794711753838,11.893794711753838,11.893794711753838,11.893794711753838,11.893794711753838,11.893794711753838,11.893794711753838
0.096,12.018047129660566,12.018047129660566,12.018047129660566,12.018047129660566,12.018047129660566,12.018047129660566,12.018047129660566,12.018047129660566,12.018047129660566,12.018047129660566,12.018047129660566,12.018047129660566,12.018047129660566,12.018047129660566,12.018047129660566
0.097,12.142269894230678,12.142269894230678,12.142269894230678,12.142269894230678,12.142269894230678,12.142269894230678,12.142269894230678,12.142269894230678,12.142269894230678,12.142269894230678,12.142269894230678,12.142269894230678,12.142269894230678,12.142269894230678,12.142269894230678
0.098,12.26646269895685,12.26646269895685,12.26646269895685,12.26646269895685,12.26646269895685,12.26646269895685,12.26646269895685,12.26646269895685,12.26646269895685,12.26646269895685,12.26646269895685,12.26646269895685,12.26646269895685,12.26646269895685,12.26646269895685
0.099,12.39062523740569,12.39062523740569,12.39062523740569,12.39062523740569,12.39062523740569,12.39062523740569,12.39062523740569,12.39062523740569,12.39062523740569,12.39062523740569,12.39062523740569,12.39062523740569,12.39062523740569,12.39062523740569,12.39062523740569
0.1,12.514757203218469,12.514757203218469,12.514757203218469,12.514757203218469,12.514757203218469,12.514757203218469,12.514757203218469,12.514757203218469,12.514757203218469,12.514757203218469,12.514757203218469,12.514757203218469,12.514757203218469,12.514757203218469,12.514757203218469
0.101,12.638858290111907,12.638858290111907,12.638858290111907,12.638858290111907,12.638858290111907,12.638858290111907,12.638858290111907,12.638858290111907,12.638858290111907,12.638858290111907,12.638858290111907,12.638858290111907,12.638858290111907,12.638858290111907,12.638858290111907
0.10200000000000001,12.762928191878904,12.762928191878904,12.762928191878904,12.762928191878904,12.762928191878904,12.762928191878904,12.762928191878904,12.762928191878904,12.762928191878904,12.762928191878904,12.762928191878904,12.762928191878904,12.762928191878904,12.762928191878904,12.762928191878904
0.10300000000000001,12.886966602389315,12.886966602389315,12.886966602389315,12.886966602389315,12.886966602389315,12.886966602389315,12.886966602389315,12.886966602389315,12.886966602389315,12.886966602389315,12.886966602389315,12.886966602389315,12.886966602389315,12.886966602389315,12.886966602389315
0.10400000000000001,13.010973215590688,13.010973215590688,13.010973215590688,13.010973215590688,13.010973215590688,13.010973215590688,13.010973215590688,13.010973215590688,13.010973215590688,13.010973215590688,13.010973215590688,13.010973215590688,13.010973215590688,13.010973215590688,13.010973215590688
0.105,13.134947725509035,13.134947725509035,13.134947725509035,13.134947725509035,13.134947725509035,13.134947725509035,13.134947725509035,13.134947725509035,13.134947725509035,13.134947725509035,13.134947725509035,13.134947725509035,13.134947725509035,13.134947725509035,13.134947725509035
0.106,13.258889826249575,13.258889826249575,13.258889826249575,13.258889826249575,13.258889826249575,13.258889826249575,13.258889826249575,13.258889826249575,13.258889826249575,13.258889826249575,13.258889826249575,13.258889826249575,13.258889826249575,13.258889826249575,13.258889826249575
0.107,13.382799211997497,13.382799211997497,13.382799211997497,13.382799211997497,13.382799211997497,13.382799211997497,13.382799211997497,13.382799211997497,13.382799211997497,13.382799211997497,13.382799211997497,13.382799211997497,13.382799211997497,13.382799211997497,13.382799211997497
0.108,13.50667557701871,13.50667557701871,13.50667557701871,13.50667557701871,13.50667557701871,13.50667557701871,13.50667557701871,13.50667557701871,13.50667557701871,13.50667557701871,13.50667557701871,13.50667557701871,13.50667557701871,13.50667557701871,13.50667557701871
0.109,13.630518615660595,13.630518615660595,13.630518615660595,13.630518615660595,13.630518615660595,13.630518615660595,13.630518615660595,13.630518615660595,13.630518615660595,13.630518615660595,13.630518615660595,13.630518615660595,13.630518615660595,13.630518615660595,13.630518615660595
0.11,13.754328022352762,13.754328022352762,13.754328022352762,13.754328022352762,13.754328022352762,13.754328022352762,13.754328022352762,13.754328022352762,13.754328022352762,13.754328022352762,13.754328022352762,13.754328022352762,13.754328022352762,13.754328022352762,13.754328022352762
0.111,13.878103491607817,13.878103491607817,13.878103491607817,13.878103491607817,13.878103491607817,13.878103491607817,13.878103491607817,13.878103491607817,13.878103491607817,13.878103491607817,13.878103491607817,13.878103491607817,13.878103491607817,13.878103491607817,13.878103491607817
0.112,14.001844718022083,14.001844718022083,14.001844718022083,14.001844718022083,14.001844718022083,14.001844718022083,14.001844718022083,14.001844718022083,14.001844718022083,14.001844718022083,14.001844718022083,14.001844718022083,14.001844718022083,14.001844718022083,14.001844718022083
0.113,14.125551396276393,14.125551396276393,14.125551396276393,14.125551396276393,14.125551396276393,14.125551396276393,14.125551396276393,14.125551396276393,14.125551396276393,14.125551396276393,14.125551396276393,14.125551396276393,14.125551396276393,14.125551396276393,14.125551396276393
0.114,14.24922322113681,14.24922322113681,14.24922322113681,14.24922322113681,14.24922322113681,14.24922322113681,14.24922322113681,14.24922322113681,14.24922322113681,14.24922322113681,14.24922322113681,14.24922322113681,14.24922322113681,14.24922322113681,14.24922322113681
0.115,14.372859887455402,14.372859887455402,14.372859887455402,14.372859887455402,14.372859887455402,14.372859887455402,14.372859887455402,14.372859887455402,14.372859887455402,14.372859887455402,14.372859887455402,14.372859887455402,14.372859887455402,14.372859887455402,14.372859887455402
0.116,14.496461090170989,14.496461090170989,14.496461090170989,14.496461090170989,14.496461090170989,14.496461090170989,14.496461090170989,14.496461090170989,14.496461090170989,14.496461090170989,14.496461090170989,14.496461090170989,14.496461090170989,14.496461090170989,14.496461090170989
0.117,14.620026524309884,14.620026524309884,14.620026524309884,14.620026524309884,14.620026524309884,14.620026524309884,14.620026524309884,14.620026524309884,14.620026524309884,14.620026524309884,14.620026524309884,14.620026524309884,14.620026524309884,14.620026524309884,14.620026524309884
0.11800000000000001,14.743555884986666,14.743555884986666,14.743555884986666,14.743555884986666,14.743555884986666,14.743555884986666,14.743555884986666,14.743555884986666,14.743555884986666,14.743555884986666,14.743555884986666,14.743555884986666,14.743555884986666,14.743555884986666,14.743555884986666
0.11900000000000001,14.867048867404913,14.867048867404913,14.867048867404913,14.867048867404913,14.867048867404913,14.867048867404913,14.867048867404913,14.867048867404913,14.867048867404913,14.867048867404913,14.867048867404913,14.867048867404913,14.867048867404913,14.867048867404913,14.867048867404913
0.12,14.990505166857968,14.990505166857968,14.990505166857968,14.990505166857968,14.990505166857968,14.990505166857968,14.990505166857968,14.990505166857968,14.990505166857968,14.990505166857968,14.990505166857968,14.990505166857968,14.990505166857968,14.990505166857968,14.990505166857968
0.121,15.11392447872969,15.11392447872969,15.11392447872969,15.11392447872969,15.11392447872969,15.11392447872969,15.11392447872969,15.11392447872969,15.11392447872969,15.11392447872969,15.11392447872969,15.11392447872969,15.11392447872969,15.11392447872969,15.11392447872969
0.122,15.237306498495188,15.237306498495188,15.237306498495188,15.237306498495188,15.237306498495188,15.237306498495188,15.237306498495188,15.237306498495188,15.237306498495188,15.237306498495188,15.237306498495188,15.237306498495188,15.237306498495188,15.237306498495188,15.237306498495188
0.123,15.360650921721602,15.360650921721602,15.360650921721602,15.360650921721602,15.360650921721602,15.360650921721602,15.360650921721602,15.360650921721602,15.360650921721602,15.360650921721602,15.360650921721602,15.360650921721602,15.360650921721602,15.360650921721602,15.360650921721602
0.124,15.48395744406882,15.48395744406882,15.48395744406882,15.48395744406882,15.48395744406882,15.48395744406882,15.48395744406882,15.48395744406882,15.48395744406882,15.48395744406882,15.48395744406882,15.48395744406882,15.48395744406882,15.48395744406882,15.48395744406882
0.125,15.607225761290259,15.607225761290259,15.607225761290259,15.607225761290259,15.607225761290259,15.607225761290259,15.607225761290259,15.607225761290259,15.607225761290259,15.607225761290259,15.607225761290259,15.607225761290259,15.607225761290259,15.607225761290259,15.607225761290259
0.126,15.730455569233605,15.730455569233605,15.730455569233605,15.730455569233605,15.730455569233605,15.730455569233605,15.730455569233605,15.730455569233605,15.730455569233605,15.730455569233605,15.730455569233605,15.730455569233605,15.730455569233605,15.730455569233605,15.730455569233605
0.127,15.853646563841547,15.853646563841547,15.853646563841547,15.853646563841547,15.853646563841547,15.853646563841547,15.853646563841547,15.853646563841547,15.853646563841547,15.853646563841547,15.853646563841547,15.853646563841547,15.853646563841547,15.853646563841547,15.853646563841547
0.128,15.976798441152562,15.976798441152562,15.976798441152562,15.976798441152562,15.976798441152562,15.976798441152562,15.976798441152562,15.976798441152562,15.976798441152562,15.976798441152562,15.976798441152562,15.976798441152562,15.976798441152562,15.976798441152562,15.976798441152562
0.129,16.099910897301626,16.099910897301626,16.099910897301626,16.099910897301626,16.099910897301626,16.099910897301626,16.099910897301626,16.099910897301626,16.099910897301626,16.099910897301626,16.099910897301626,16.099910897301626,16.099910897301626,16.099910897301626,16.099910897301626
0.13,16.222983628521,16.222983628521,16.222983628521,16.222983628521,16.222983628521,16.222983628521,16.222983628521,16.222983628521,16.222983628521,16.222983628521,16.222983628521,16.222983628521,16.222983628521,16.222983628521,16.222983628521
0.131,16.346016331140945,16.346016331140945,16.346016331140945,16.346016331140945,16.346016331140945,16.346016331140945,16.346016331140945,16.346016331140945,16.346016331140945,16.346016331140945,16.346016331140945,16.346016331140945,16.346016331140945,16.346016331140945,16.346016331140945
0.132,16.469008701590507,16.469008701590507,16.469008701590507,16.469008701590507,16.469008701590507,16.469008701590507,16.469008701590507,16.469008701590507,16.469008701590507,16.469008701590507,16.469008701590507,16.469008701590507,16.469008701590507,16.469008701590507,16.469008701590507
0.133,16.59196043639823,16.59196043639823,16.59196043639823,16.59196043639823,16.59196043639823,16.59196043639823,16.59196043639823,16.59196043639823,16.59196043639823,16.59196043639823,16.59196043639823,16.59196043639823,16.59196043639823,16.59196043639823,16.59196043639823
0.134,16.714871232192937,16.714871232192937,16.714871232192937,16.714871232192937,16.714871232192937,16.714871232192937,16.714871232192937,16.714871232192937,16.714871232192937,16.714871232192937,16.714871232192937,16.714871232192937,16.714871232192937,16.714871232192937,16.714871232192937
0.135,16.837740785704455,16.837740785704455,16.837740785704455,16.837740785704455,16.837740785704455,16.837740785704455,16.837740785704455,16.837740785704455,16.837740785704455,16.837740785704455,16.837740785704455,16.837740785704455,16.837740785704455,16.837740785704455,16.837740785704455
0.136,16.96056879376437,16.96056879376437,16.96056879376437,16.96056879376437,16.96056879376437,16.96056879376437,16.96056879376437,16.96056879376437,16.96056879376437,16.96056879376437,16.96056879376437,16.96056879376437,16.96056879376437,16.96056879376437,16.96056879376437
0.137,17.08335495330679,17.08335495330679,17.08335495330679,17.08335495330679,17.08335495330679,17.08335495330679,17.08335495330679,17.08335495330679,17.08335495330679,17.08335495330679,17.08335495330679,17.08335495330679,17.08335495330679,17.08335495330679,17.08335495330679
0.138,17.20609896136907,17.20609896136907,17.20609896136907,17.20609896136907,17.20609896136907,17.20609896136907,17.20609896136907,17.20609896136907,17.20609896136907,17.20609896136907,17.20609896136907,17.20609896136907,17.20609896136907,17.20609896136907,17.20609896136907
0.139,17.32880051509257,17.32880051509257,17.32880051509257,17.32880051509257,17.32880051509257,17.32880051509257,17.32880051509257,17.32880051509257,17.32880051509257,17.32880051509257,17.32880051509257,17.32880051509257,17.32880051509257,17.32880051509257,17.32880051509257
0.14,17.451459311723404,17.451459311723404,17.451459311723404,17.451459311723404,17.451459311723404,17.451459311723404,17.451459311723404,17.451459311723404,17.451459311723404,17.451459311723404,17.451459311723404,17.451459311723404,17.451459311723404,17.451459311723404,17.451459311723404
0.14100000000000001,17.574075048613185,17.574075048613185,17.574075048613185,17.574075048613185,17.574075048613185,17.574075048613185,17.574075048613185,17.574075048613185,17.574075048613185,17.574075048613185,17.574075048613185,17.574075048613185,17.574075048613185,17.574075048613185,17.574075048613185
0.14200000000000002,17.696647423219773,17.696647423219773,17.696647423219773,17.696647423219773,17.696647423219773,17.696647423219773,17.696647423219773,17.696647423219773,17.696647423219773,17.696647423219773,17.696647423219773,17.696647423219773,17.696647423219773,17.696647423219773,17.696647423219773
0.14300000000000002,17.819176133108012,17.819176133108012,17.819176133108012,17.819176133108012,17.819176133108012,17.819176133108012,17.819176133108012,17.819176133108012,17.819176133108012,17.819176133108012,17.819176133108012,17.819176133108012,17.819176133108012,17.819176133108012,17.819176133108012
0.14400000000000002,17.941660875950497,17.941660875950497,17.941660875950497,17.941660875950497,17.941660875950497,17.941660875950497,17.941660875950497,17.941660875950497,17.941660875950497,17.941660875950497,17.941660875950497,17.941660875950497,17.941660875950497,17.941660875950497,17.941660875950497
0.145,18.064101349528293,18.064101349528293,18.064101349528293,18.064101349528293,18.064101349528293,18.064101349528293,18.064101349528293,18.064101349528293,18.064101349528293,18.064101349528293,18.064101349528293,18.064101349528293,18.064101349528293,18.064101349528293,18.064101349528293
0.146,18.186497251731712,18.186497251731712,18.186497251731712,18.186497251731712,18.186497251731712,18.186497251731712,18.186497251731712,18.186497251731712,18.186497251731712,18.186497251731712,18.186497251731712,18.186497251731712,18.186497251731712,18.186497251731712,18.186497251731712
0.147,18.308848280561033,18.308848280561033,18.308848280561033,18.308848280561033,18.308848280561033,18.308848280561033,18.308848280561033,18.308848280561033,18.308848280561033,18.308848280561033,18.308848280561033,18.308848280561033,18.308848280561033,18.308848280561033,18.308848280561033
0.148,18.431154134127247,18.431154134127247,18.431154134127247,18.431154134127247,18.431154134127247,18.431154134127247,18.431154134127247,18.431154134127247,18.431154134127247,18.431154134127247,18.431154134127247,18.431154134127247,18.431154134127247,18.431154134127247,18.431154134127247
0.149,18.55341451065282,18.55341451065282,18.55341451065282,18.55341451065282,18.55341451065282,18.55341451065282,18.55341451065282,18.55341451065282,18.55341451065282,18.55341451065282,18.55341451065282,18.55341451065282,18.55341451065282,18.55341451065282,18.55341451065282
0.15,18.67562910847243,18.67562910847243,18.67562910847243,18.67562910847243,18.67562910847243,18.67562910847243,18.67562910847243,18.67562910847243,18.67562910847243,18.67562910847243,18.67562910847243,18.67562910847243,18.67562910847243,18.67562910847243,18.67562910847243
0.151,18.797797626033706,18.797797626033706,18.797797626033706,18.797797626033706,18.797797626033706,18.797797626033706,18.797797626033706,18.797797626033706,18.797797626033706,18.797797626033706,18.797797626033706,18.797797626033706,18.797797626033706,18.797797626033706,18.797797626033706
0.152,18.919919761897972,18.919919761897972,18.919919761897972,18.919919761897972,18.919919761897972,18.919919761897972,18.919919761897972,18.919919761897972,18.919919761897972,18.919919761897972,18.919919761897972,18.919919761897972,18.919919761897972,18.919919761897972,18.919919761897972
0.153,19.041995214741,19.041995214741,19.041995214741,19.041995214741,19.041995214741,19.041995214741,19.041995214741,19.041995214741,19.041995214741,19.041995214741,19.041995214741,19.041995214741,19.041995214741,19.041995214741,19.041995214741
0.154,19.164023683353747,19.164023683353747,19.164023683353747,19.164023683353747,19.164023683353747,19.164023683353747,19.164023683353747,19.164023683353747,19.164023683353747,19.164023683353747,19.164023683353747,19.164023683353747,19.164023683353747,19.164023683353747,19.164023683353747
0.155,19.28600486664309,19.28600486664309,19.28600486664309,19.28600486664309,19.28600486664309,19.28600486664309,19.28600486664309,19.28600486664309,19.28600486664309,19.28600486664309,19.28600486664309,19.28600486664309,19.28600486664309,19.28600486664309,19.28600486664309
0.156,19.407938463632593,19.407938463632593,19.407938463632593,19.407938463632593,19.407938463632593,19.407938463632593,19.407938463632593,19.407938463632593,19.407938463632593,19.407938463632593,19.407938463632593,19.407938463632593,19.407938463632593,19.407938463632593,19.407938463632593
0.157,19.529824173463226,19.529824173463226,19.529824173463226,19.529824173463226,19.529824173463226,19.529824173463226,19.529824173463226,19.529824173463226,19.529824173463226,19.529824173463226,19.529824173463226,19.529824173463226,19.529824173463226,19.529824173463226,19.529824173463226
0.158,19.651661695394107,19.651661695394107,19.651661695394107,19.651661695394107,19.651661695394107,19.651661695394107,19.651661695394107,19.651661695394107,19.651661695394107,19.651661695394107,19.651661695394107,19.651661695394107,19.651661695394107,19.651661695394107,19.651661695394107
0.159,19.773450728803272,19.773450728803272,19.773450728803272,19.773450728803272,19.773450728803272,19.773450728803272,19.773450728803272,19.773450728803272,19.773450728803272,19.773450728803272,19.773450728803272,19.773450728803272,19.773450728803272,19.773450728803272,19.773450728803272
0.16,19.895190973188384,19.895190973188384,19.895190973188384,19.895190973188384,19.895190973188384,19.895190973188384,19.895190973188384,19.895190973188384,19.895190973188384,19.895190973188384,19.895190973188384,19.895190973188384,19.895190973188384,19.895190973188384,19.895190973188384
0.161,20.016882128167488,20.016882128167488,20.016882128167488,20.016882128167488,20.016882128167488,20.016882128167488,20.016882128167488,20.016882128167488,20.016882128167488,20.016882128167488,20.016882128167488,20.016882128167488,20.016882128167488,20.016882128167488,20.016882128167488
0.162,20.138523893479764,20.138523893479764,20.138523893479764,20.138523893479764,20.138523893479764,20.138523893479764,20.138523893479764,20.138523893479764,20.138523893479764,20.138523893479764,20.138523893479764,20.138523893479764,20.138523893479764,20.138523893479764,20.138523893479764
0.163,20.26011596898625,20.26011596898625,20.26011596898625,20.26011596898625,20.26011596898625,20.26011596898625,20.26011596898625,20.26011596898625,20.26011596898625,20.26011596898625,20.26011596898625,20.26011596898625,20.26011596898625,20.26011596898625,20.26011596898625
0.164,20.381658054670574,20.381658054670574,20.381658054670574,20.381658054670574,20.381658054670574,20.381658054670574,20.381658054670574,20.381658054670574,20.381658054670574,20.381658054670574,20.381658054670574,20.381658054670574,20.381658054670574,20.381658054670574,20.381658054670574
0.165,20.503149850639733,20.503149850639733,20.503149850639733,20.503149850639733,20.503149850639733,20.503149850639733,20.503149850639733,20.503149850639733,20.503149850639733,20.503149850639733,20.503149850639733,20.503149850639733,20.503149850639733,20.503149850639733,20.503149850639733
0.166,20.62459105712479,20.62459105712479,20.62459105712479,20.62459105712479,20.62459105712479,20.62459105712479,20.62459105712479,20.62459105712479,20.62459105712479,20.62459105712479,20.62459105712479,20.62459105712479,20.62459105712479,20.62459105712479,20.62459105712479
0.167,20.745981374481644,20.745981374481644,20.745981374481644,20.745981374481644,20.745981374481644,20.745981374481644,20.745981374481644,20.745981374481644,20.745981374481644,20.745981374481644,20.745981374481644,20.745981374481644,20.745981374481644,20.745981374481644,20.745981374481644
0.168,20.867320503191756,20.867320503191756,20.867320503191756,20.867320503191756,20.867320503191756,20.867320503191756,20.867320503191756,20.867320503191756,20.867320503191756,20.867320503191756,20.867320503191756,20.867320503191756,20.867320503191756,20.867320503191756,20.867320503191756
0.169,20.988608143862884,20.988608143862884,20.988608143862884,20.988608143862884,20.988608143862884,20.988608143862884,20.988608143862884,20.988608143862884,20.988608143862884,20.988608143862884,20.988608143862884,20.988608143862884,20.988608143862884,20.988608143862884,20.988608143862884
0.17,21.109843997229834,21.109843997229834,21.109843997229834,21.109843997229834,21.109843997229834,21.109843997229834,21.109843997229834,21.109843997229834,21.109843997229834,21.109843997229834,21.109843997229834,21.109843997229834,21.109843997229834,21.109843997229834,21.109843997229834
0.171,21.231027764155183,21.231027764155183,21.231027764155183,21.231027764155183,21.231027764155183,21.231027764155183,21.231027764155183,21.231027764155183,21.231027764155183,21.231027764155183,21.231027764155183,21.231027764155183,21.231027764155183,21.231027764155183,21.231027764155183
0.17200000000000001,21.352159145630047,21.352159145630047,21.352159145630047,21.352159145630047,21.352159145630047,21.352159145630047,21.352159145630047,21.352159145630047,21.352159145630047,21.352159145630047,21.352159145630047,21.352159145630047,21.352159145630047,21.352159145630047,21.352159145630047
0.17300000000000001,21.47323784277477,21.47323784277477,21.47323784277477,21.47323784277477,21.47323784277477,21.47323784277477,21.47323784277477,21.47323784277477,21.47323784277477,21.47323784277477,21.47323784277477,21.47323784277477,21.47323784277477,21.47323784277477,21.47323784277477
0.17400000000000002,21.59426355683971,21.59426355683971,21.59426355683971,21.59426355683971,21.59426355683971,21.59426355683971,21.59426355683971,21.59426355683971,21.59426355683971,21.59426355683971,21.59426355683971,21.59426355683971,21.59426355683971,21.59426355683971,21.59426355683971
0.17500000000000002,21.71523598920594,21.71523598920594,21.71523598920594,21.71523598920594,21.71523598920594,21.71523598920594,21.71523598920594,21.71523598920594,21.71523598920594,21.71523598920594,21.71523598920594,21.71523598920594,21.71523598920594,21.71523598920594,21.71523598920594
0.176,21.836154841386012,21.836154841386012,21.836154841386012,21.836154841386012,21.836154841386012,21.836154841386012,21.836154841386012,21.836154841386012,21.836154841386012,21.836154841386012,21.836154841386012,21.836154841386012,21.836154841386012,21.836154841386012,21.836154841386012
0.177,21.957019815024694,21.957019815024694,21.957019815024694,21.957019815024694,21.957019815024694,21.957019815024694,21.957019815024694,21.957019815024694,21.957019815024694,21.957019815024694,21.957019815024694,21.957019815024694,21.957019815024694,21.957019815024694,21.957019815024694
0.178,22.077830611899657,22.077830611899657,22.077830611899657,22.077830611899657,22.077830611899657,22.077830611899657,22.077830611899657,22.077830611899657,22.077830611899657,22.077830611899657,22.077830611899657,22.077830611899657,22.077830611899657,22.077830611899657,22.077830611899657
0.179,22.19858693392228,22.19858693392228,22.19858693392228,22.19858693392228,22.19858693392228,22.19858693392228,22.19858693392228,22.19858693392228,22.19858693392228,22.19858693392228,22.19858693392228,22.19858693392228,22.19858693392228,22.19858693392228,22.19858693392228
0.18,22.319288483138344,22.319288483138344,22.319288483138344,22.319288483138344,22.319288483138344,22.319288483138344,22.319288483138344,22.319288483138344,22.319288483138344,22.319288483138344,22.319288483138344,22.319288483138344,22.319288483138344,22.319288483138344,22.319288483138344
0.181,22.43993496172876,22.43993496172876,22.43993496172876,22.43993496172876,22.43993496172876,22.43993496172876,22.43993496172876,22.43993496172876,22.43993496172876,22.43993496172876,22.43993496172876,22.43993496172876,22.43993496172876,22.43993496172876,22.43993496172876
0.182,22.56052607201035,22.56052607201035,22.56052607201035,22.56052607201035,22.56052607201035,22.56052607201035,22.56052607201035,22.56052607201035,22.56052607201035,22.56052607201035,22.56052607201035,22.56052607201035,22.56052607201035,22.56052607201035,22.56052607201035
0.183,22.68106151643654,22.68106151643654,22.68106151643654,22.68106151643654,22.68106151643654,22.68106151643654,22.68106151643654,22.68106151643654,22.68106151643654,22.68106151643654,22.68106151643654,22.68106151643654,22.68106151643654,22.68106151643654,22.68106151643654
0.184,22.80154099759809,22.80154099759809,22.80154099759809,22.80154099759809,22.80154099759809,22.80154099759809,22.80154099759809,22.80154099759809,22.80154099759809,22.80154099759809,22.80154099759809,22.80154099759809,22.80154099759809,22.80154099759809,22.80154099759809
0.185,22.921964218223863,22.921964218223863,22.921964218223863,22.921964218223863,22.921964218223863,22.921964218223863,22.921964218223863,22.921964218223863,22.921964218223863,22.921964218223863,22.921964218223863,22.921964218223863,22.921964218223863,22.921964218223863,22.921964218223863
0.186,23.04233088118153,23.04233088118153,23.04233088118153,23.04233088118153,23.04233088118153,23.04233088118153,23.04233088118153,23.04233088118153,23.04233088118153,23.04233088118153,23.04233088118153,23.04233088118153,23.04233088118153,23.04233088118153,23.04233088118153
0.187,23.162640689478327,23.162640689478327,23.162640689478327,23.162640689478327,23.162640689478327,23.162640689478327,23.162640689478327,23.162640689478327,23.162640689478327,23.162640689478327,23.162640689478327,23.162640689478327,23.162640689478327,23.162640689478327,23.162640689478327
0.188,23.282893346261744,23.282893346261744,23.282893346261744,23.282893346261744,23.282893346261744,23.282893346261744,23.282893346261744,23.282893346261744,23.282893346261744,23.282893346261744,23.282893346261744,23.282893346261744,23.282893346261744,23.282893346261744,23.282893346261744
0.189,23.40308855482032,23.40308855482032,23.40308855482032,23.40308855482032,23.40308855482032,23.40308855482032,23.40308855482032,23.40308855482032,23.40308855482032,23.40308855482032,23.40308855482032,23.40308855482032,23.40308855482032,23.40308855482032,23.40308855482032
0.19,23.523226018584317,23.523226018584317,23.523226018584317,23.523226018584317,23.523226018584317,23.523226018584317,23.523226018584317,23.523226018584317,23.523226018584317,23.523226018584317,23.523226018584317,23.523226018584317,23.523226018584317,23.523226018584317,23.523226018584317
0.191,23.643305441126486,23.643305441126486,23.643305441126486,23.643305441126486,23.643305441126486,23.643305441126486,23.643305441126486,23.643305441126486,23.643305441126486,23.643305441126486,23.643305441126486,23.643305441126486,23.643305441126486,23.643305441126486,23.643305441126486
0.192,23.763326526162793,23.763326526162793,23.763326526162793,23.763326526162793,23.763326526162793,23.763326526162793,23.763326526162793,23.763326526162793,23.763326526162793,23.763326526162793,23.763326526162793,23.763326526162793,23.763326526162793,23.763326526162793,23.763326526162793
0.193,23.883288977553136,23.883288977553136,23.883288977553136,23.883288977553136,23.883288977553136,23.883288977553136,23.883288977553136,23.883288977553136,23.883288977553136,23.883288977553136,23.883288977553136,23.883288977553136,23.883288977553136,23.883288977553136,23.883288977553136
0.194,24.0031924993021,24.0031924993021,24.0031924993021,24.0031924993021,24.0031924993021,24.0031924993021,24.0031924993021,24.0031924993021,24.0031924993021,24.0031924993021,24.0031924993021,24.0031924993021,24.0031924993021,24.0031924993021,24.0031924993021
0.195,24.123036795559653,24.123036795559653,24.123036795559653,24.123036795559653,24.123036795559653,24.123036795559653,24.123036795559653,24.123036795559653,24.123036795559653,24.123036795559653,24.123036795559653,24.123036795559653,24.123036795559653,24.123036795559653,24.123036795559653
0.196,24.242821570621913,24.242821570621913,24.242821570621913,24.242821570621913,24.242821570621913,24.242821570621913,24.242821570621913,24.242821570621913,24.242821570621913,24.242821570621913,24.242821570621913,24.242821570621913,24.242821570621913,24.242821570621913,24.242821570621913
0.197,24.362546528931865,24.362546528931865,24.362546528931865,24.362546528931865,24.362546528931865,24.362546528931865,24.362546528931865,24.362546528931865,24.362546528931865,24.362546528931865,24.362546528931865,24.362546528931865,24.362546528931865,24.362546528931865,24.362546528931865
0.198,24.482211375080063,24.482211375080063,24.482211375080063,24.482211375080063,24.482211375080063,24.482211375080063,24.482211375080063,24.482211375080063,24.482211375080063,24.482211375080063,24.482211375080063,24.482211375080063,24.482211375080063,24.482211375080063,24.482211375080063
0.199,24.60181581380539,24.60181581380539,24.60181581380539,24.60181581380539,24.60181581380539,24.60181581380539,24.60181581380539,24.60181581380539,24.60181581380539,24.60181581380539,24.60181581380539,24.60181581380539,24.60181581380539,24.60181581380539,24.60181581380539
0.2,24.721359549995793,24.721359549995793,24.721359549995793,24.721359549995793,24.721359549995793,24.721359549995793,24.721359549995793,24.721359549995793,24.721359549995793,24.721359549995793,24.721359549995793,24.721359549995793,24.721359549995793,24.721359549995793,24.721359549995793
0.201,24.840842288688986,24.840842288688986,24.840842288688986,24.840842288688986,24.840842288688986,24.840842288688986,24.840842288688986,24.840842288688986,24.840842288688986,24.840842288688986,24.840842288688986,24.840842288688986,24.840842288688986,24.840842288688986,24.840842288688986
0.202,24.96026373507319,24.96026373507319,24.96026373507319,24.96026373507319,24.96026373507319,24.96026373507319,24.96026373507319,24.96026373507319,24.96026373507319,24.96026373507319,24.96026373507319,24.96026373507319,24.96026373507319,24.96026373507319,24.96026373507319
0.203,25.07962359448785,25.07962359448785,25.07962359448785,25.07962359448785,25.07962359448785,25.07962359448785,25.07962359448785,25.07962359448785,25.07962359448785,25.07962359448785,25.07962359448785,25.07962359448785,25.07962359448785,25.07962359448785,25.07962359448785
0.20400000000000001,25.198921572424382,25.198921572424382,25.198921572424382,25.198921572424382,25.198921572424382,25.198921572424382,25.198921572424382,25.198921572424382,25.198921572424382,25.198921572424382,25.198921572424382,25.198921572424382,25.198921572424382,25.198921572424382,25.198921572424382
0.20500000000000002,25.31815737452689,25.31815737452689,25.31815737452689,25.31815737452689,25.31815737452689,25.31815737452689,25.31815737452689,25.31815737452689,25.31815737452689,25.31815737452689,25.31815737452689,25.31815737452689,25.31815737452689,25.31815737452689,25.31815737452689
0.20600000000000002,25.437330706592878,25.437330706592878,25.437330706592878,25.437330706592878,25.437330706592878,25.437330706592878,25.437330706592878,25.437330706592878,25.437330706592878,25.437330706592878,25.437330706592878,25.437330706592878,25.437330706592878,25.437330706592878,25.437330706592878
0.20700000000000002,25.556441274574,25.556441274574,25.556441274574,25.556441274574,25.556441274574,25.556441274574,25.556441274574,25.556441274574,25.556441274574,25.556441274574,25.556441274574,25.556441274574,25.556441274574,25.556441274574,25.556441274574
0.20800000000000002,25.675488784576764,25.675488784576764,25.675488784576764,25.675488784576764,25.675488784576764,25.675488784576764,25.675488784576764,25.675488784576764,25.675488784576764,25.675488784576764,25.675488784576764,25.675488784576764,25.675488784576764,25.675488784576764,25.675488784576764
0.209,25.794472942863273,25.794472942863273,25.794472942863273,25.794472942863273,25.794472942863273,25.794472942863273,25.794472942863273,25.794472942863273,25.794472942863273,25.794472942863273,25.794472942863273,25.794472942863273,25.794472942863273,25.794472942863273,25.794472942863273
0.21,25.913393455851953,25.913393455851953,25.913393455851953,25.913393455851953,25.913393455851953,25.913393455851953,25.913393455851953,25.913393455851953,25.913393455851953,25.913393455851953,25.913393455851953,25.913393455851953,25.913393455851953,25.913393455851953,25.913393455851953
0.211,26.032250030118252,26.032250030118252,26.032250030118252,26.032250030118252,26.032250030118252,26.032250030118252,26.032250030118252,26.032250030118252,26.032250030118252,26.032250030118252,26.032250030118252,26.032250030118252,26.032250030118252,26.032250030118252,26.032250030118252
0.212,26.151042372395395,26.151042372395395,26.151042372395395,26.151042372395395,26.151042372395395,26.151042372395395,26.151042372395395,26.151042372395395,26.151042372395395,26.151042372395395,26.151042372395395,26.151042372395395,26.151042372395395,26.151042372395395,26.151042372395395
0.213,26.269770189575084,26.269770189575084,26.269770189575084,26.269770189575084,26.269770189575084,26.269770189575084,26.269770189575084,26.269770189575084,26.269770189575084,26.269770189575084,26.269770189575084,26.269770189575084,26.269770189575084,26.269770189575084,26.269770189575084
0.214,26.38843318870823,26.38843318870823,26.38843318870823,26.38843318870823,26.38843318870823,26.38843318870823,26.38843318870823,26.38843318870823,26.38843318870823,26.38843318870823,26.38843318870823,26.38843318870823,26.38843318870823,26.38843318870823,26.38843318870823
0.215,26.507031077005678,26.507031077005678,26.507031077005678,26.507031077005678,26.507031077005678,26.507031077005678,26.507031077005678,26.507031077005678,26.507031077005678,26.507031077005678,26.507031077005678,26.507031077005678,26.507031077005678,26.507031077005678,26.507031077005678
0.216,26.62556356183893,26.62556356183893,26.62556356183893,26.62556356183893,26.62556356183893,26.62556356183893,26.62556356183893,26.62556356183893,26.62556356183893,26.62556356183893,26.62556356183893,26.62556356183893,26.62556356183893,26.62556356183893,26.62556356183893
0.217,26.74403035074086,26.74403035074086,26.74403035074086,26.74403035074086,26.74403035074086,26.74403035074086,26.74403035074086,26.74403035074086,26.74403035074086,26.74403035074086,26.74403035074086,26.74403035074086,26.74403035074086,26.74403035074086,26.74403035074086
0.218,26.86243115140645,26.86243115140645,26.86243115140645,26.86243115140645,26.86243115140645,26.86243115140645,26.86243115140645,26.86243115140645,26.86243115140645,26.86243115140645,26.86243115140645,26.86243115140645,26.86243115140645,26.86243115140645,26.86243115140645
0.219,26.980765671693486,26.980765671693486,26.980765671693486,26.980765671693486,26.980765671693486,26.980765671693486,26.980765671693486,26.980765671693486,26.980765671693486,26.980765671693486,26.980765671693486,26.980765671693486,26.980765671693486,26.980765671693486,26.980765671693486
0.22,27.09903361962331,27.09903361962331,27.09903361962331,27.09903361962331,27.09903361962331,27.09903361962331,27.09903361962331,27.09903361962331,27.09903361962331,27.09903361962331,27.09903361962331,27.09903361962331,27.09903361962331,27.09903361962331,27.09903361962331
0.221,27.21723470338151,27.21723470338151,27.21723470338151,27.21723470338151,27.21723470338151,27.21723470338151,27.21723470338151,27.21723470338151,27.21723470338151,27.21723470338151,27.21723470338151,27.21723470338151,27.21723470338151,27.21723470338151,27.21723470338151
0.222,27.335368631318666,27.335368631318666,27.335368631318666,27.335368631318666,27.335368631318666,27.335368631318666,27.335368631318666,27.335368631318666,27.335368631318666,27.335368631318666,27.335368631318666,27.335368631318666,27.335368631318666,27.335368631318666,27.335368631318666
0.223,27.453435111951055,27.453435111951055,27.453435111951055,27.453435111951055,27.453435111951055,27.453435111951055,27.453435111951055,27.453435111951055,27.453435111951055,27.453435111951055,27.453435111951055,27.453435111951055,27.453435111951055,27.453435111951055,27.453435111951055
0.224,27.571433853961366,27.571433853961366,27.571433853961366,27.571433853961366,27.571433853961366,27.571433853961366,27.571433853961366,27.571433853961366,27.571433853961366,27.571433853961366,27.571433853961366,27.571433853961366,27.571433853961366,27.571433853961366,27.571433853961366
0.225,27.689364566199437,27.689364566199437,27.689364566199437,27.689364566199437,27.689364566199437,27.689364566199437,27.689364566199437,27.689364566199437,27.689364566199437,27.689364566199437,27.689364566199437,27.689364566199437,27.689364566199437,27.689364566199437,27.689364566199437
0.226,27.807226957682964,27.807226957682964,27.807226957682964,27.807226957682964,27.807226957682964,27.807226957682964,27.807226957682964,27.807226957682964,27.807226957682964,27.807226957682964,27.807226957682964,27.807226957682964,27.807226957682964,27.807226957682964,27.807226957682964
0.227,27.925020737598206,27.925020737598206,27.925020737598206,27.925020737598206,27.925020737598206,27.925020737598206,27.925020737598206,27.925020737598206,27.925020737598206,27.925020737598206,27.925020737598206,27.925020737598206,27.925020737598206,27.925020737598206,27.925020737598206
0.228,28.04274561530072,28.04274561530072,28.04274561530072,28.04274561530072,28.04274561530072,28.04274561530072,28.04274561530072,28.04274561530072,28.04274561530072,28.04274561530072,28.04274561530072,28.04274561530072,28.04274561530072,28.04274561530072,28.04274561530072
0.229,28.160401300316078,28.160401300316078,28.160401300316078,28.160401300316078,28.160401300316078,28.160401300316078,28.160401300316078,28.160401300316078,28.160401300316078,28.160401300316078,28.160401300316078,28.160401300316078,28.160401300316078,28.160401300316078,28.160401300316078
0.23,28.277987502340572,28.277987502340572,28.277987502340572,28.277987502340572,28.277987502340572,28.277987502340572,28.277987502340572,28.277987502340572,28.277987502340572,28.277987502340572,28.277987502340572,28.277987502340572,28.277987502340572,28.277987502340572,28.277987502340572
0.231,28.395503931241933,28.395503931241933,28.395503931241933,28.395503931241933,28.395503931241933,28.395503931241933,28.395503931241933,28.395503931241933,28.395503931241933,28.395503931241933,28.395503931241933,28.395503931241933,28.395503931241933,28.395503931241933,28.395503931241933
0.232,28.51295029706006,28.51295029706006,28.51295029706006,28.51295029706006,28.51295029706006,28.51295029706006,28.51295029706006,28.51295029706006,28.51295029706006,28.51295029706006,28.51295029706006,28.51295029706006,28.51295029706006,28.51295029706006,28.51295029706006
0.233,28.63032631000771,28.63032631000771,28.63032631000771,28.63032631000771,28.63032631000771,28.63032631000771,28.63032631000771,28.63032631000771,28.63032631000771,28.63032631000771,28.63032631000771,28.63032631000771,28.63032631000771,28.63032631000771,28.63032631000771
0.234,28.74763168047125,28.74763168047125,28.74763168047125,28.74763168047125,28.74763168047125,28.74763168047125,28.74763168047125,28.74763168047125,28.74763168047125,28.74763168047125,28.74763168047125,28.74763168047125,28.74763168047125,28.74763168047125,28.74763168047125
0.23500000000000001,28.864866119011342,28.864866119011342,28.864866119011342,28.864866119011342,28.864866119011342,28.864866119011342,28.864866119011342,28.864866119011342,28.864866119011342,28.864866119011342,28.864866119011342,28.864866119011342,28.864866119011342,28.864866119011342,28.864866119011342
0.23600000000000002,28.982029336363656,28.982029336363656,28.982029336363656,28.982029336363656,28.982029336363656,28.982029336363656,28.982029336363656,28.982029336363656,28.982029336363656,28.982029336363656,28.982029336363656,28.982029336363656,28.982029336363656,28.982029336363656,28.982029336363656
0.23700000000000002,29.0991210434396,29.0991210434396,29.0991210434396,29.0991210434396,29.0991210434396,29.0991210434396,29.0991210434396,29.0991210434396,29.0991210434396,29.0991210434396,29.0991210434396,29.0991210434396,29.0991210434396,29.0991210434396,29.0991210434396
0.23800000000000002,29.216140951327027,29.216140951327027,29.216140951327027,29.216140951327027,29.216140951327027,29.216140951327027,29.216140951327027,29.216140951327027,29.216140951327027,29.216140951327027,29.216140951327027,29.216140951327027,29.216140951327027,29.216140951327027,29.216140951327027
0.23900000000000002,29.333088771290946,29.333088771290946,29.333088771290946,29.333088771290946,29.333088771290946,29.333088771290946,29.333088771290946,29.333088771290946,29.333088771290946,29.333088771290946,29.333088771290946,29.333088771290946,29.333088771290946,29.333088771290946,29.333088771290946
0.24,29.449964214774234,29.449964214774234,29.449964214774234,29.449964214774234,29.449964214774234,29.449964214774234,29.449964214774234,29.449964214774234,29.449964214774234,29.449964214774234,29.449964214774234,29.449964214774234,29.449964214774234,29.449964214774234,29.449964214774234
0.241,29.56676699339836,29.56676699339836,29.56676699339836,29.56676699339836,29.56676699339836,29.56676699339836,29.56676699339836,29.56676699339836,29.56676699339836,29.56676699339836,29.56676699339836,29.56676699339836,29.56676699339836,29.56676699339836,29.56676699339836
0.242,29.68349681896408,29.68349681896408,29.68349681896408,29.68349681896408,29.68349681896408,29.68349681896408,29.68349681896408,29.68349681896408,29.68349681896408,29.68349681896408,29.68349681896408,29.68349681896408,29.68349681896408,29.68349681896408,29.68349681896408
0.243,29.800153403452146,29.800153403452146,29.800153403452146,29.800153403452146,29.800153403452146,29.800153403452146,29.800153403452146,29.800153403452146,29.800153403452146,29.800153403452146,29.800153403452146,29.800153403452146,29.800153403452146,29.800153403452146,29.800153403452146
0.244,29.91673645902403,29.91673645902403,29.91673645902403,29.91673645902403,29.91673645902403,29.91673645902403,29.91673645902403,29.91673645902403,29.91673645902403,29.91673645902403,29.91673645902403,29.91673645902403,29.91673645902403,29.91673645902403,29.91673645902403
0.245,30.03324569802264,30.03324569802264,30.03324569802264,30.03324569802264,30.03324569802264,30.03324569802264,30.03324569802264,30.03324569802264,30.03324569802264,30.03324569802264,30.03324569802264,30.03324569802264,30.03324569802264,30.03324569802264,30.03324569802264
0.246,30.14968083297301,30.14968083297301,30.14968083297301,30.14968083297301,30.14968083297301,30.14968083297301,30.14968083297301,30.14968083297301,30.14968083297301,30.14968083297301,30.14968083297301,30.14968083297301,30.14968083297301,30.14968083297301,30.14968083297301
0.247,30.266041576583017,30.266041576583017,30.266041576583017,30.266041576583017,30.266041576583017,30.266041576583017,30.266041576583017,30.266041576583017,30.266041576583017,30.266041576583017,30.266041576583017,30.266041576583017,30.266041576583017,30.266041576583017,30.266041576583017
0.248,30.382327641744084,30.382327641744084,30.382327641744084,30.382327641744084,30.382327641744084,30.382327641744084,30.382327641744084,30.382327641744084,30.382327641744084,30.382327641744084,30.382327641744084,30.382327641744084,30.382327641744084,30.382327641744084,30.382327641744084
0.249,30.498538741531924,30.498538741531924,30.498538741531924,30.498538741531924,30.498538741531924,30.498538741531924,30.498538741531924,30.498538741531924,30.498538741531924,30.498538741531924,30.498538741531924,30.498538741531924,30.498538741531924,30.498538741531924,30.498538741531924
0.25,30.614674589207183,30.614674589207183,30.614674589207183,30.614674589207183,30.614674589207183,30.614674589207183,30.614674589207183,30.614674589207183,30.614674589207183,30.614674589207183,30.614674589207183,30.614674589207183,30.614674589207183,30.614674589207183,30.614674589207183
0.251,30.730734898216205,30.730734898216205,30.730734898216205,30.730734898216205,30.730734898216205,30.730734898216205,30.730734898216205,30.730734898216205,30.730734898216205,30.730734898216205,30.730734898216205,30.730734898216205,30.730734898216205,30.730734898216205,30.730734898216205
0.252,30.846719382191722,30.846719382191722,30.846719382191722,30.846719382191722,30.846719382191722,30.846719382191722,30.846719382191722,30.846719382191722,30.846719382191722,30.846719382191722,30.846719382191722,30.846719382191722,30.846719382191722,30.846719382191722,30.846719382191722
0.253,30.962627754953544,30.962627754953544,30.962627754953544,30.962627754953544,30.962627754953544,30.962627754953544,30.962627754953544,30.962627754953544,30.962627754953544,30.962627754953544,30.962627754953544,30.962627754953544,30.962627754953544,30.962627754953544,30.962627754953544
0.254,31.078459730509284,31.078459730509284,31.078459730509284,31.078459730509284,31.078459730509284,31.078459730509284,31.078459730509284,31.078459730509284,31.078459730509284,31.078459730509284,31.078459730509284,31.078459730509284,31.078459730509284,31.078459730509284,31.078459730509284
0.255,31.19421502305506,31.19421502305506,31.19421502305506,31.19421502305506,31.19421502305506,31.19421502305506,31.19421502305506,31.19421502305506,31.19421502305506,31.19421502305506,31.19421502305506,31.19421502305506,31.19421502305506,31.19421502305506,31.19421502305506
0.256,31.309893346976196,31.309893346976196,31.309893346976196,31.309893346976196,31.309893346976196,31.309893346976196,31.309893346976196,31.309893346976196,31.309893346976196,31.309893346976196,31.309893346976196,31.309893346976196,31.309893346976196,31.309893346976196,31.309893346976196
0.257,31.42549441684791,31.42549441684791,31.42549441684791,31.42549441684791,31.42549441684791,31.42549441684791,31.42549441684791,31.42549441684791,31.42549441684791,31.42549441684791,31.42549441684791,31.42549441684791,31.42549441684791,31.42549441684791,31.42549441684791
0.258,31.541017947436075,31.541017947436075,31.541017947436075,31.541017947436075,31.541017947436075,31.541017947436075,31.541017947436075,31.541017947436075,31.541017947436075,31.541017947436075,31.541017947436075,31.541017947436075,31.541017947436075,31.541017947436075,31.541017947436075
0.259,31.656463653697855,31.656463653697855,31.656463653697855,31.656463653697855,31.656463653697855,31.656463653697855,31.656463653697855,31.656463653697855,31.656463653697855,31.656463653697855,31.656463653697855,31.656463653697855,31.656463653697855,31.656463653697855,31.656463653697855
0.26,31.771831250782448,31.771831250782448,31.771831250782448,31.771831250782448,31.771831250782448,31.771831250782448,31.771831250782448,31.771831250782448,31.771831250782448,31.771831250782448,31.771831250782448,31.771831250782448,31.771831250782448,31.771831250782448,31.771831250782448
0.261,31.887120454031773,31.887120454031773,31.887120454031773,31.887120454031773,31.887120454031773,31.887120454031773,31.887120454031773,31.887120454031773,31.887120454031773,31.887120454031773,31.887120454031773,31.887120454031773,31.887120454031773,31.887120454031773,31.887120454031773
0.262,32.00233097898118,32.00233097898118,32.00233097898118,32.00233097898118,32.00233097898118,32.00233097898118,32.00233097898118,32.00233097898118,32.00233097898118,32.00233097898118,32.00233097898118,32.00233097898118,32.00233097898118,32.00233097898118,32.00233097898118
0.263,32.117462541360155,32.117462541360155,32.117462541360155,32.117462541360155,32.117462541360155,32.117462541360155,32.117462541360155,32.117462541360155,32.117462541360155,32.117462541360155,32.117462541360155,32.117462541360155,32.117462541360155,32.117462541360155,32.117462541360155
0.264,32.23251485709301,32.23251485709301,32.23251485709301,32.23251485709301,32.23251485709301,32.23251485709301,32.23251485709301,32.23251485709301,32.23251485709301,32.23251485709301,32.23251485709301,32.23251485709301,32.23251485709301,32.23251485709301,32.23251485709301
0.265,32.3474876422996,32.3474876422996,32.3474876422996,32.3474876422996,32.3474876422996,32.3474876422996,32.3474876422996,32.3474876422996,32.3474876422996,32.3474876422996,32.3474876422996,32.3474876422996,32.3474876422996,32.3474876422996,32.3474876422996
0.266,32.462380613296,32.462380613296,32.462380613296,32.462380613296,32.462380613296,32.462380613296,32.462380613296,32.462380613296,32.462380613296,32.462380613296,32.462380613296,32.462380613296,32.462380613296,32.462380613296,32.462380613296
0.267,32.57719348659522,32.57719348659522,32.57719348659522,32.57719348659522,32.57719348659522,32.57719348659522,32.57719348659522,32.57719348659522,32.57719348659522,32.57719348659522,32.57719348659522,32.57719348659522,32.57719348659522,32.57719348659522,32.57719348659522
0.268,32.691925978907925,32.691925978907925,32.691925978907925,32.691925978907925,32.691925978907925,32.691925978907925,32.691925978907925,32.691925978907925,32.691925978907925,32.691925978907925,32.691925978907925,32.691925978907925,32.691925978907925,32.691925978907925,32.691925978907925
0.269,32.80657780714308,32.80657780714308,32.80657780714308,32.80657780714308,32.80657780714308,32.80657780714308,32.80657780714308,32.80657780714308,32.80657780714308,32.80657780714308,32.80657780714308,32.80657780714308,32.80657780714308,32.80657780714308,32.80657780714308
0.27,32.92114868840871,32.92114868840871,32.92114868840871,32.92114868840871,32.92114868840871,32.92114868840871,32.92114868840871,32.92114868840871,32.92114868840871,32.92114868840871,32.92114868840871,32.92114868840871,32.92114868840871,32.92114868840871,32.92114868840871
0.271,33.03563834001253,33.03563834001253,33.03563834001253,33.03563834001253,33.03563834001253,33.03563834001253,33.03563834001253,33.03563834001253,33.03563834001253,33.03563834001253,33.03563834001253,33.03563834001253,33.03563834001253,33.03563834001253,33.03563834001253
0.272,33.15004647946273,33.15004647946273,33.15004647946273,33.15004647946273,33.15004647946273,33.15004647946273,33.15004647946273,33.15004647946273,33.15004647946273,33.15004647946273,33.15004647946273,33.15004647946273,33.15004647946273,33.15004647946273,33.15004647946273
0.273,33.264372824468595,33.264372824468595,33.264372824468595,33.264372824468595,33.264372824468595,33.264372824468595,33.264372824468595,33.264372824468595,33.264372824468595,33.264372824468595,33.264372824468595,33.264372824468595,33.264372824468595,33.264372824468595,33.264372824468595
0.274,33.37861709294123,33.37861709294123,33.37861709294123,33.37861709294123,33.37861709294123,33.37861709294123,33.37861709294123,33.37861709294123,33.37861709294123,33.37861709294123,33.37861709294123,33.37861709294123,33.37861709294123,33.37861709294123,33.37861709294123
0.275,33.492779002994254,33.492779002994254,33.492779002994254,33.492779002994254,33.492779002994254,33.492779002994254,33.492779002994254,33.492779002994254,33.492779002994254,33.492779002994254,33.492779002994254,33.492779002994254,33.492779002994254,33.492779002994254,33.492779002994254
0.276,33.6068582729445,33.6068582729445,33.6068582729445,33.6068582729445,33.6068582729445,33.6068582729445,33.6068582729445,33.6068582729445,33.6068582729445,33.6068582729445,33.6068582729445,33.6068582729445,33.6068582729445,33.6068582729445,33.6068582729445
0.277,33.720854621312725,33.720854621312725,33.720854621312725,33.720854621312725,33.720854621312725,33.720854621312725,33.720854621312725,33.720854621312725,33.720854621312725,33.720854621312725,33.720854621312725,33.720854621312725,33.720854621312725,33.720854621312725,33.720854621312725
0.278,33.834767766824264,33.834767766824264,33.834767766824264,33.834767766824264,33.834767766824264,33.834767766824264,33.834767766824264,33.834767766824264,33.834767766824264,33.834767766824264,33.834767766824264,33.834767766824264,33.834767766824264,33.834767766824264,33.834767766824264
0.279,33.948597428409755,33.948597428409755,33.948597428409755,33.948597428409755,33.948597428409755,33.948597428409755,33.948597428409755,33.948597428409755,33.948597428409755,33.948597428409755,33.948597428409755,33.948597428409755,33.948597428409755,33.948597428409755,33.948597428409755
0.28,34.062343325205816,34.062343325205816,34.062343325205816,34.062343325205816,34.062343325205816,34.062343325205816,34.062343325205816,34.062343325205816,34.062343325205816,34.062343325205816,34.062343325205816,34.062343325205816,34.062343325205816,34.062343325205816,34.062343325205816
0.281,34.17600517655576,34.17600517655576,34.17600517655576,34.17600517655576,34.17600517655576,34.17600517655576,34.17600517655576,34.17600517655576,34.17600517655576,34.17600517655576,34.17600517655576,34.17600517655576,34.17600517655576,34.17600517655576,34.17600517655576
0.28200000000000003,34.28958270201027,34.28958270201027,34.28958270201027,34.28958270201027,34.28958270201027,34.28958270201027,34.28958270201027,34.28958270201027,34.28958270201027,34.28958270201027,34.28958270201027,34.28958270201027,34.28958270201027,34.28958270201027,34.28958270201027
0.28300000000000003,34.40307562132809,34.40307562132809,34.40307562132809,34.40307562132809,34.40307562132809,34.40307562132809,34.40307562132809,34.40307562132809,34.40307562132809,34.40307562132809,34.40307562132809,34.40307562132809,34.40307562132809,34.40307562132809,34.40307562132809
0.28400000000000003,34.51648365447672,34.51648365447672,34.51648365447672,34.51648365447672,34.51648365447672,34.51648365447672,34.51648365447672,34.51648365447672,34.51648365447672,34.51648365447672,34.51648365447672,34.51648365447672,34.51648365447672,34.51648365447672,34.51648365447672
0.28500000000000003,34.629806521633114,34.629806521633114,34.629806521633114,34.629806521633114,34.629806521633114,34.629806521633114,34.629806521633114,34.629806521633114,34.629806521633114,34.629806521633114,34.629806521633114,34.629806521633114,34.629806521633114,34.629806521633114,34.629806521633114
0.28600000000000003,34.74304394318437,34.74304394318437,34.74304394318437,34.74304394318437,34.74304394318437,34.74304394318437,34.74304394318437,34.74304394318437,34.74304394318437,34.74304394318437,34.74304394318437,34.74304394318437,34.74304394318437,34.74304394318437,34.74304394318437
0.28700000000000003,34.8561956397284,34.8561956397284,34.8561956397284,34.8561956397284,34.8561956397284,34.8561956397284,34.8561956397284,34.8561956397284,34.8561956397284,34.8561956397284,34.8561956397284,34.8561956397284,34.8561956397284,34.8561956397284,34.8561956397284
0.28800000000000003,34.96926133207464,34.96926133207464,34.96926133207464,34.96926133207464,34.96926133207464,34.96926133207464,34.96926133207464,34.96926133207464,34.96926133207464,34.96926133207464,34.96926133207464,34.96926133207464,34.96926133207464,34.96926133207464,34.96926133207464
0.289,35.08224074124472,35.08224074124472,35.08224074124472,35.08224074124472,35.08224074124472,35.08224074124472,35.08224074124472,35.08224074124472,35.08224074124472,35.08224074124472,35.08224074124472,35.08224074124472,35.08224074124472,35.08224074124472,35.08224074124472
0.29,35.195133588473205,35.19513358847321,35.195133588473205,35.195133588473205,35.195133588473205,35.19513358847321,35.195133588473205,35.195133588473205,35.195133588473205,35.195133588473205,35.195133588473205,35.195133588473205,35.195133588473205,35.195133588473205,35.195133588473205
0.291,35.30793959520821,35.30793959520822,35.30793959520821,35.30793959520821,35.30793959520821,35.30793959520822,35.30793959520821,35.30793959520821,35.30793959520821,35.30793959520821,35.30793959520821,35.30793959520821,35.30793959520821,35.30793959520821,35.30793959520821
0.292,35.42065848311211,35.42065848311212,35.42065848311212,35.42065848311211,35.42065848311211,35.42065848311212,35.42065848311211,35.42065848311211,35.42065848311211,35.42065848311211,35.42065848311211,35.42065848311211,35.42065848311211,35.42065848311211,35.42065848311211
0.293,35.533289974062285,35.53328997406229,35.53328997406229,35.53328997406228,35.533289974062285,35.53328997406229,35.533289974062285,35.533289974062285,35.53328997406229,35.533289974062285,35.533289974062285,35.533289974062285,35.533289974062285,35.533289974062285,35.533289974062285
0.294,35.6458337901517,35.645833790151706,35.645833790151706,35.64583379015169,35.6458337901517,35.645833790151706,35.6458337901517,35.645833790151706,35.645833790151706,35.645833790151706,35.6458337901517,35.6458337901517,35.6458337901517,35.6458337901517,35.6458337901517
0.295,35.75828965368969,35.758289653689694,35.758289653689694,35.75828965368968,35.75828965368969,35.758289653689694,35.75828965368969,35.758289653689694,35.758289653689694,35.758289653689694,35.75828965368969,35.75828965368969,35.75828965368969,35.75828965368969,35.75828965368969
0.296,35.870657287202576,35.87065728720258,35.87065728720258,35.87065728720257,35.870657287202576,35.87065728720258,35.87065728720258,35.87065728720258,35.87065728720258,35.87065728720258,35.87065728720258,35.870657287202576,35.870657287202576,35.870657287202576,35.870657287202576
0.297,35.98293641343441,35.98293641343442,35.982936413434416,35.9829364134344,35.98293641343441,35.98293641343442,35.982936413434416,35.982936413434416,35.982936413434416,35.982936413434416,35.982936413434416,35.98293641343441,35.98293641343441,35.98293641343441,35.98293641343441
0.298,36.0951267553476,36.095126755347614,36.09512675534761,36.09512675534759,36.0951267553476,36.095126755347614,36.09512675534761,36.09512675534761,36.09512675534761,36.09512675534761,36.09512675534761,36.09512675534761,36.09512675534761,36.0951267553476,36.0951267553476
0.299,36.207228036123645,36.20722803612365,36.207228036123645,36.20722803612363,36.20722803612364,36.20722803612365,36.207228036123645,36.207228036123645,36.207228036123645,36.207228036123645,36.207228036123645,36.207228036123645,36.207228036123645,36.20722803612364,36.20722803612364
0.3,36.31923997916375,36.319239979163754,36.319239979163754,36.31923997916373,36.31923997916373,36.319239979163754,36.31923997916375,36.31923997916375,36.31923997916375,36.31923997916375,36.31923997916375,36.31923997916375,36.31923997916375,36.31923997916374,36.31923997916374
0.301,36.43116230808959,36.431162308089604,36.4311623080896,36.43116230808957,36.431162308089576,36.431162308089604,36.43116230808959,36.43116230808959,36.4311623080896,36.43116230808959,36.43116230808959,36.43116230808959,36.43116230808959,36.43116230808958,36.43116230808958
0.302,36.542994746743965,36.54299474674398,36.54299474674397,36.54299474674394,36.54299474674395,36.54299474674398,36.542994746743965,36.54299474674397,36.54299474674397,36.54299474674397,36.542994746743965,36.542994746743965,36.542994746743965,36.54299474674396,36.54299474674396
0.303,36.65473701919142,36.654737019191444,36.65473701919144,36.6547370191914,36.65473701919141,36.654737019191444,36.65473701919142,36.65473701919143,36.65473701919143,36.65473701919143,36.65473701919143,36.65473701919142,36.65473701919142,36.654737019191415,36.654737019191415
0.304,36.76638884971903,36.76638884971905,36.76638884971904,36.766388849719,36.766388849719014,36.76638884971905,36.766388849719036,36.766388849719036,36.76638884971904,36.766388849719036,36.766388849719036,36.76638884971903,36.76638884971903,36.76638884971902,36.76638884971902
0.305,36.87794996283699,36.87794996283702,36.87794996283701,36.877949962836965,36.87794996283698,36.87794996283702,36.877949962837,36.87794996283701,36.87794996283701,36.877949962837,36.877949962837,36.877949962837,36.877949962837,36.87794996283699,36.877949962836986
0.306,36.98942008327935,36.989420083279384,36.98942008327937,36.98942008327932,36.989420083279335,36.989420083279384,36.989420083279356,36.98942008327936,36.98942008327937,36.98942008327936,36.989420083279356,36.989420083279356,36.989420083279356,36.98942008327935,36.98942008327934
0.307,37.100798936004665,37.10079893600469,37.100798936004686,37.10079893600462,37.100798936004644,37.10079893600469,37.10079893600467,37.10079893600467,37.10079893600468,37.10079893600467,37.10079893600467,37.100798936004665,37.100798936004665,37.10079893600466,37.10079893600465
0.308,37.21208624619668,37.21208624619671,37.2120862461967,37.21208624619663,37.21208624619665,37.21208624619671,37.212086246196684,37.21208624619669,37.2120862461967,37.21208624619669,37.212086246196684,37.21208624619668,37.21208624619668,37.21208624619667,37.21208624619666
0.309,37.32328173926503,37.32328173926507,37.323281739265056,37.32328173926498,37.323281739265,37.32328173926507,37.323281739265035,37.32328173926505,37.32328173926505,37.32328173926504,37.32328173926504,37.323281739265035,37.323281739265035,37.32328173926502,37.32328173926501
0.31,37.43438514084589,37.43438514084594,37.43438514084592,37.434385140845826,37.434385140845855,37.43438514084594,37.4343851408459,37.434385140845905,37.43438514084591,37.434385140845905,37.4343851408459,37.43438514084589,37.43438514084589,37.434385140845876,37.43438514084587
0.311,37.54539617680265,37.545396176802704,37.54539617680268,37.545396176802576,37.545396176802605,37.545396176802704,37.54539617680266,37.54539617680267,37.545396176802676,37.54539617680267,37.54539617680266,37.545396176802655,37.545396176802655,37.54539617680263,37.545396176802626
0.312,37.656314573226624,37.656314573226695,37.656314573226666,37.656314573226545,37.65631457322658,37.656314573226695,37.65631457322664,37.65631457322665,37.65631457322666,37.65631457322665,37.65631457322664,37.65631457322663,37.65631457322663,37.65631457322662,37.6563145732266
0.313,37.767140056437704,37.76714005643778,37.76714005643775,37.76714005643761,37.767140056437654,37.76714005643778,37.76714005643772,37.76714005643773,37.767140056437746,37.76714005643773,37.76714005643772,37.76714005643771,37.76714005643771,37.76714005643769,37.767140056437675
0.314,37.877872352985,37.87787235298509,37.87787235298506,37.87787235298489,37.87787235298494,37.87787235298509,37.877872352985015,37.87787235298503,37.877872352985044,37.87787235298503,37.877872352985015,37.877872352985,37.87787235298501,37.87787235298498,37.877872352984966
0.315,37.988511189647596,37.9885111896477,37.98851118964766,37.988511189647475,37.988511189647525,37.9885111896477,37.98851118964762,37.98851118964764,37.98851118964765,37.98851118964763,37.98851118964762,37.9885111896476,37.9885111896476,37.988511189647575,37.98851118964756
0.316,38.09905629343517,38.09905629343529,38.09905629343525,38.09905629343503,38.09905629343509,38.09905629343529,38.09905629343519,38.09905629343521,38.09905629343523,38.09905629343521,38.0990562934352,38.099056293435176,38.099056293435176,38.09905629343515,38.099056293435126
0.317,38.20950739158865,38.20950739158879,38.20950739158874,38.20950739158848,38.20950739158856,38.20950739158879,38.20950739158868,38.2095073915887,38.20950739158872,38.2095073915887,38.20950739158868,38.20950739158866,38.20950739158866,38.20950739158862,38.2095073915886
0.318,38.319864211580935,38.31986421158109,38.319864211581034,38.31986421158074,38.31986421158083,38.31986421158109,38.31986421158096,38.31986421158099,38.31986421158101,38.31986421158099,38.31986421158097,38.31986421158095,38.31986421158095,38.31986421158091,38.31986421158088
0.319,38.43012648111755,38.430126481117725,38.43012648111766,38.43012648111733,38.430126481117426,38.430126481117725,38.43012648111758,38.43012648111762,38.43012648111764,38.43012648111761,38.43012648111758,38.43012648111756,38.43012648111756,38.43012648111751,38.43012648111749
0.32,38.5402939281373,38.54029392813751,38.54029392813743,38.54029392813705,38.54029392813716,38.54029392813751,38.54029392813734,38.54029392813737,38.5402939281374,38.54029392813737,38.540293928137345,38.54029392813732,38.54029392813732,38.54029392813726,38.54029392813723
0.321,38.65036628081296,38.650366280813195,38.65036628081311,38.65036628081267,38.6503662808128,38.650366280813195,38.65036628081301,38.65036628081305,38.65036628081308,38.650366280813046,38.65036628081301,38.65036628081298,38.65036628081298,38.65036628081291,38.65036628081288
0.322,38.76034326755193,38.7603432675522,38.7603432675521,38.7603432675516,38.76034326755175,38.7603432675522,38.76034326755199,38.76034326755203,38.760343267552074,38.760343267552024,38.76034326755199,38.76034326755195,38.76034326755195,38.760343267551875,38.76034326755184
0.323,38.87022461699696,38.87022461699727,38.870224616997156,38.87022461699657,38.870224616996744,38.87022461699727,38.87022461699702,38.87022461699707,38.87022461699712,38.87022461699706,38.87022461699702,38.87022461699698,38.870224616996985,38.87022461699689,38.87022461699685
0.324,38.98001005802671,38.98001005802707,38.980010058026934,38.98001005802627,38.980010058026465,38.98001005802707,38.98001005802678,38.98001005802684,38.98001005802689,38.980010058026835,38.980010058026785,38.980010058026735,38.980010058026735,38.980010058026636,38.980010058026586
0.325,39.08969931975654,39.08969931975695,39.089699319756804,39.089699319756036,39.089699319756264,39.08969931975695,39.089699319756626,39.0896993197567,39.089699319756754,39.08969931975668,39.089699319756626,39.08969931975657,39.089699319756576,39.08969931975646,39.0896993197564
0.326,39.199292131539096,39.19929213153957,39.199292131539394,39.19929213153852,39.199292131538776,39.19929213153957,39.19929213153919,39.19929213153927,39.19929213153934,39.19929213153926,39.199292131539195,39.19929213153913,39.19929213153914,39.199292131539,39.19929213153893
0.327,39.308788222965006,39.308788222965546,39.30878822296535,39.30878822296434,39.30878822296464,39.308788222965546,39.30878822296511,39.308788222965205,39.30878822296528,39.30878822296519,39.30878822296512,39.30878822296504,39.30878822296505,39.3087882229649,39.30878822296482
0.328,39.41818732386355,39.41818732386417,39.41818732386394,39.41818732386278,39.41818732386312,39.41818732386417,39.41818732386367,39.418187323863776,39.41818732386387,39.41818732386376,39.41818732386368,39.41818732386359,39.4181873238636,39.41818732386342,39.418187323863336
0.329,39.52748916430333,39.52748916430404,39.52748916430378,39.52748916430245,39.52748916430284,39.52748916430404,39.52748916430347,39.527489164303596,39.527489164303695,39.527489164303574,39.527489164303475,39.52748916430338,39.52748916430339,39.527489164303184,39.527489164303084
0.33,39.6366934745929,39.63669347459372,39.63669347459342,39.6366934745919,39.63669347459235,39.63669347459372,39.636693474593066,39.63669347459321,39.63669347459332,39.63669347459318,39.63669347459307,39.63669347459296,39.63669347459297,39.63669347459274,39.63669347459262
0.331,39.74579998528151,39.74579998528244,39.7457999852821,39.74579998528036,39.74579998528087,39.74579998528244,39.74579998528169,39.745799985281856,39.745799985281984,39.74579998528183,39.7457999852817,39.74579998528158,39.74579998528158,39.74579998528132,39.74579998528119
0.332,39.854808427159654,39.85480842716073,39.85480842716033,39.85480842715834,39.85480842715892,39.85480842716073,39.85480842715987,39.85480842716005,39.8548084271602,39.854808427160016,39.854808427159874,39.85480842715973,39.85480842715974,39.85480842715944,39.854808427159284
0.333,39.96371853125987,39.963718531261094,39.963718531260646,39.963718531258365,39.96371853125903,39.963718531261094,39.96371853126011,39.96371853126033,39.9637185312605,39.96371853126029,39.96371853126013,39.96371853125996,39.96371853125997,39.96371853125962,39.96371853125945
0.334,40.0725300288573,40.0725300288587,40.07253002885819,40.072530028855574,40.07253002885634,40.0725300288587,40.07253002885758,40.07253002885783,40.07253002885802,40.072530028857784,40.07253002885759,40.0725300288574,40.072530028857415,40.07253002885702,40.07253002885682
0.335,40.18124265147039,40.18124265147199,40.18124265147141,40.181242651468416,40.18124265146929,40.18124265147199,40.181242651470704,40.18124265147099,40.18124265147121,40.18124265147094,40.18124265147072,40.181242651470505,40.18124265147051,40.181242651470065,40.18124265146984
0.336,40.28985613086154,40.28985613086337,40.289856130862695,40.28985613085927,40.28985613086028,40.28985613086337,40.28985613086189,40.28985613086222,40.28985613086247,40.28985613086216,40.289856130861914,40.289856130861665,40.28985613086168,40.28985613086116,40.2898561308609
0.337,40.3983701990378,40.398370199039896,40.39837019903913,40.39837019903521,40.398370199036364,40.398370199039896,40.39837019903821,40.39837019903858,40.39837019903887,40.39837019903852,40.39837019903823,40.39837019903795,40.39837019903796,40.39837019903738,40.398370199037075
0.338,40.506784588251485,40.50678458825388,40.506784588253005,40.50678458824853,40.50678458824984,40.50678458825388,40.50678458825195,40.50678458825237,40.50678458825271,40.5067845882523,40.50678458825198,40.506784588251655,40.50678458825167,40.506784588251,40.50678458825065
0.339,40.61509903100088,40.61509903100362,40.61509903100262,40.615099030997506,40.61509903099901,40.61509903100362,40.61509903100142,40.615099031001904,40.61509903100228,40.61509903100182,40.61509903100145,40.61509903100108,40.6150990310011,40.61509903100033,40.615099030999936
0.34,40.72331326003085,40.72331326003399,40.72331326003284,40.72331326002699,40.72331326002871,40.72331326003399,40.72331326003147,40.723313260032015,40.723313260032455,40.72331326003192,40.7233132600315,40.72331326003108,40.7233132600311,40.723313260030224,40.72331326002977
0.341,40.831427008333556,40.83142700833714,40.83142700833583,40.83142700832915,40.83142700833111,40.83142700833714,40.831427008334266,40.83142700833489,40.83142700833539,40.831427008334785,40.8314270083343,40.83142700833382,40.83142700833384,40.83142700833284,40.83142700833233
0.342,40.939440009149095,40.93944000915318,40.93944000915169,40.93944000914406,40.9394400091463,40.93944000915318,40.9394400091499,40.939440009150616,40.939440009151184,40.93944000915049,40.93944000914994,40.939440009149386,40.939440009149415,40.93944000914827,40.93944000914768
0.343,41.04735199596609,41.04735199597076,41.047351995969045,41.047351995960334,41.0473519959629,41.04735199597076,41.047351995967006,41.04735199596782,41.04735199596847,41.04735199596768,41.047351995967055,41.04735199596642,41.04735199596645,41.047351995965144,41.047351995964476
0.34400000000000003,41.15516270252247,41.1551627025278,41.15516270252584,41.155162702515895,41.15516270251882,41.1551627025278,41.15516270252352,41.15516270252445,41.15516270252519,41.15516270252429,41.15516270252357,41.15516270252285,41.15516270252289,41.15516270252139,41.15516270252063
0.34500000000000003,41.26287186280602,41.26287186281211,41.26287186280988,41.262871862798534,41.26287186280187,41.26287186281211,41.26287186280722,41.26287186280829,41.262871862809135,41.262871862808105,41.26287186280729,41.26287186280646,41.262871862806506,41.2628718628048,41.26287186280393
0.34600000000000003,41.37047921105512,41.370479211062055,41.37047921105952,41.370479211046565,41.37047921105037,41.370479211062055,41.370479211056484,41.3704792110577,41.370479211058665,41.370479211057486,41.370479211056555,41.37047921105562,41.37047921105567,41.37047921105372,41.37047921105272
0.34700000000000003,41.47798448175932,41.47798448176724,41.47798448176434,41.477984481749566,41.477984481753914,41.47798448176724,41.477984481760885,41.47798448176226,41.477984481763364,41.47798448176202,41.47798448176096,41.47798448175989,41.47798448175995,41.47798448175772,41.477984481756586
0.34800000000000003,41.585387409660065,41.58538740966909,41.585387409665785,41.585387409648945,41.5853874096539,41.58538740966909,41.58538740966185,41.58538740966342,41.585387409664676,41.58538740966315,41.585387409661934,41.58538740966071,41.585387409660775,41.585387409658246,41.58538740965695
0.34900000000000003,41.69268772975131,41.6926877297616,41.692687729757836,41.69268772973864,41.692687729744286,41.6926877297616,41.692687729753345,41.692687729755136,41.69268772975657,41.69268772975482,41.692687729753445,41.69268772975205,41.69268772975212,41.69268772974924,41.69268772974776
0.35000000000000003,41.799885177280196,41.79988517729192,41.79988517728763,41.79988517726575,41.79988517727219,41.79988517729192,41.79988517728251,41.79988517728456,41.799885177286185,41.7998851772842,41.799885177282626,41.79988517728104,41.79988517728112,41.79988517727783,41.799885177276145
0.35100000000000003,41.906979487747684,41.90697948776104,41.90697948775615,41.90697948773123,41.90697948773856,41.90697948776104,41.90697948775032,41.90697948775265,41.90697948775451,41.906979487752245,41.906979487750455,41.90697948774865,41.90697948774874,41.90697948774499,41.90697948774307
0.352,42.013970396909215,42.01397039692443,42.01397039691886,42.013970396890464,42.01397039689882,42.01397039692443,42.013970396912214,42.01397039691487,42.01397039691699,42.01397039691441,42.01397039691237,42.01397039691031,42.013970396910416,42.013970396906146,42.013970396903964
0.353,42.120857640775384,42.12085764079271,42.12085764078636,42.12085764075403,42.120857640763546,42.12085764079271,42.1208576407788,42.12085764078182,42.12085764078423,42.120857640781296,42.12085764077897,42.12085764077663,42.12085764077675,42.12085764077189,42.1208576407694
0.354,42.22764095561253,42.22764095563225,42.227640955625034,42.22764095558823,42.22764095559906,42.22764095563225,42.22764095561642,42.22764095561986,42.227640955622604,42.227640955619265,42.22764095561662,42.22764095561395,42.227640955614085,42.22764095560856,42.22764095560572
0.355,42.33432007794346,42.334320077965906,42.33432007795769,42.334320077915805,42.33432007792813,42.334320077965906,42.33432007794789,42.33432007795181,42.33432007795493,42.334320077951126,42.334320077948114,42.33432007794508,42.334320077945236,42.33432007793894,42.334320077935715
0.356,42.440894744548075,42.44089474457361,42.44089474456426,42.440894744516605,42.44089474453063,42.44089474457361,42.44089474455311,42.44089474455757,42.44089474456112,42.44089474455679,42.44089474455337,42.44089474454991,42.440894744550086,42.44089474454292,42.44089474453926
0.357,42.547364692463965,42.54736469249301,42.54736469248238,42.54736469242818,42.54736469244413,42.54736469249301,42.5473646924697,42.547364692474765,42.54736469247881,42.547364692473884,42.54736469246999,42.547364692466054,42.54736469246626,42.54736469245811,42.54736469245394
0.358,42.653729658987174,42.65372965902021,42.653729659008114,42.65372965894648,42.65372965896462,42.65372965902021,42.6537296589937,42.65372965899946,42.65372965900405,42.65372965899846,42.653729658994024,42.653729658989555,42.65372965898979,42.653729658980524,42.65372965897578
0.359,42.759989381672725,42.75998938171027,42.75998938169653,42.75998938162647,42.75998938164708,42.75998938171028,42.759989381680136,42.75998938168669,42.75998938169191,42.75998938168554,42.75998938168051,42.759989381675425,42.75998938167569,42.75998938166516,42.759989381659764
0.36,42.86614359833535,42.86614359837802,42.8661435983624,42.866143598282775,42.8661435983062,42.866143598378024,42.86614359834377,42.866143598351215,42.86614359835715,42.86614359834992,42.866143598344195,42.86614359833842,42.86614359833872,42.86614359832675,42.86614359832062
0.361,42.97219204705008,42.97219204709856,42.97219204708082,42.97219204699035,42.97219204701697,42.97219204709857,42.97219204705965,42.972192047068106,42.97219204707485,42.972192047066635,42.97219204706013,42.97219204705357,42.97219204705391,42.97219204704031,42.972192047033346
0.362,43.07813446615297,43.07813446620803,43.078134466187876,43.07813446608512,43.07813446611535,43.078134466208034,43.07813446616383,43.07813446617344,43.0781344661811,43.07813446617177,43.07813446616438,43.078134466156925,43.078134466157316,43.07813446614187,43.07813446613396
0.363,43.18397059424165,43.18397059430418,43.18397059428129,43.18397059416461,43.18397059419895,43.18397059430418,43.18397059425399,43.1839705942649,43.183970594273596,43.183970594263,43.18397059425462,43.18397059424615,43.18397059424659,43.183970594229045,43.18397059422007
0.364,43.28970017017605,43.28970017024703,43.289700170221046,43.28970017008859,43.28970017012756,43.28970017024703,43.28970017019005,43.28970017020244,43.28970017021231,43.289700170200284,43.28970017019076,43.289700170181156,43.28970017018165,43.28970017016174,43.28970017015154
0.365,43.39532293307898,43.39532293315954,43.39532293313005,43.395322932979724,43.395322933023955,43.39532293315954,43.395322933094874,43.39532293310893,43.395322933120134,43.395322933106485,43.395322933095684,43.39532293308478,43.39532293308534,43.395322933062744,43.395322933051176
0.366,43.50083862233685,43.50083862242825,43.500838622394795,43.50083862222424,43.500838622274415,43.500838622428255,43.500838622354884,43.50083862237083,43.50083862238355,43.50083862236806,43.50083862235579,43.50083862234342,43.50083862234406,43.500838622318426,43.500838622305295
0.367,43.606246977600236,43.60624697770391,43.60624697766596,43.6062469774725,43.60624697752942,43.60624697770392,43.60624697762069,43.60624697763878,43.60624697765321,43.606246977635635,43.60624697762173,43.6062469776077,43.60624697760842,43.60624697757934,43.606246977564446
0.368,43.71154773878457,43.711547738902134,43.711547738859096,43.71154773863971,43.71154773870426,43.711547738902134,43.71154773880777,43.71154773882827,43.71154773884463,43.711547738824706,43.71154773880894,43.71154773879302,43.71154773879385,43.71154773876087,43.71154773874398
0.369,43.81674064607074,43.816740646204025,43.81674064615524,43.81674064590653,43.816740645979706,43.81674064620403,43.816740646097045,43.816740646120294,43.81674064613884,43.81674064611625,43.816740646098374,43.81674064608033,43.816740646081264,43.816740646043876,43.81674064602473
0.37,43.92182543990584,43.9218254400569,43.921825440001605,43.92182543971972,43.92182543980266,43.92182544005691,43.921825439935645,43.921825439962,43.92182543998302,43.921825439957416,43.92182543993716,43.92182543991671,43.92182543991777,43.92182543987539,43.9218254398537
0.371,44.02680186100364,44.0268018611748,44.02680186111215,44.02680186079275,44.02680186088673,44.02680186117481,44.02680186103741,44.02680186106728,44.02680186109109,44.026801861062076,44.026801861039125,44.026801861015954,44.026801861017155,44.02680186096914,44.02680186094456
0.372,44.13166965034539,44.13166965053928,44.13166965046831,44.1316696501065,44.131669650212956,44.13166965053929,44.13166965038365,44.13166965041748,44.13166965044445,44.13166965041159,44.13166965038559,44.13166965035934,44.1316696503607,44.13166965030631,44.13166965027846
0.373,44.23642854918037,44.236428549399946,44.23642854931957,44.23642854890983,44.236428549030386,44.23642854939995,44.236428549223696,44.23642854926201,44.23642854929255,44.236428549255336,44.23642854922589,44.23642854919617,44.236428549197704,44.23642854913611,44.23642854910457
0.374,44.34107829902652,44.34107829927513,44.34107829918413,44.34107829872021,44.341078298856715,44.341078299275146,44.34107829907558,44.341078299118955,44.34107829915354,44.34107829911141,44.34107829907806,44.34107829904441,44.34107829904615,44.34107829897641,44.34107829894071
0.375,44.44561864167118,44.44561864195259,44.445618641849585,44.44561864132446,44.44561864147897,44.445618641952606,44.44561864172672,44.44561864177581,44.44561864181495,44.44561864176727,44.445618641729524,44.44561864169143,44.44561864169341,44.44561864161446,44.44561864157404
0.376,44.550049319171606,44.550049319490064,44.5500493193735,44.55004931877924,44.55004931895409,44.55004931949008,44.550049319234446,44.55004931929001,44.550049319334306,44.55004931928034,44.55004931923763,44.55004931919452,44.55004931919675,44.550049319107416,44.55004931906168
0.377,44.65437007385568,44.65437007421599,44.654370074084106,44.654370073411755,44.654370073609584,44.654370074216004,44.654370073926785,44.65437007398965,44.65437007403977,44.654370073978704,44.65437007393038,44.65437007388161,44.65437007388414,44.65437007378306,44.654370073731315
0.378,44.75858064832255,44.75858064873011,44.758580648580924,44.7585806478204,44.75858064804417,44.758580648730124,44.758580648402976,44.75858064847408,44.758580648530774,44.7585806484617,44.75858064840704,44.758580648351874,44.75858064835473,44.7585806482404,44.75858064818187
0.379,44.8626807854432,44.86268078590412,44.86268078573541,44.86268078487532,44.86268078512839,44.86268078590413,44.86268078553416,44.86268078561457,44.862680785678684,44.862680785600574,44.862680785538764,44.86268078547637,44.862680785479604,44.86268078535031,44.862680785284105
0.38,44.9666702283612,44.96667022888236,44.96667022869159,44.966670227719106,44.96667022800525,44.96667022888237,44.96667022846405,44.96667022855497,44.966670228627464,44.966670228539144,44.96667022846925,44.966670228398705,44.96667022840236,44.96667022825616,44.966670228181314
0.381,45.07054872049327,45.070548721082424,45.070548720866775,45.070548719767395,45.07054872009087,45.070548721082446,45.07054872060954,45.07054872071232,45.07054872079427,45.070548720694426,45.07054872061541,45.07054872053567,45.0705487205398,45.070548720374525,45.07054872028991
0.382,45.17431600552992,45.17431600619584,45.174316005952086,45.17431600470945,45.174316005075084,45.17431600619586,45.17431600566133,45.174316005777506,45.17431600587014,45.174316005757284,45.174316005667976,45.174316005577836,45.174316005582504,45.174316005395696,45.17431600530006
0.383,45.27797182743608,45.27797182818866,45.27797182791319,45.27797182650884,45.27797182692205,45.27797182818869,45.277971827584594,45.277971827715895,45.27797182782058,45.27797182769304,45.277971827592104,45.277971827490234,45.27797182749551,45.27797182728439,45.27797182717631
0.384,45.38151593045181,45.381515931302246,45.38151593099096,45.38151592940402,45.38151592987095,45.38151593130228,45.38151593061964,45.38151593076801,45.3815159308863,45.38151593074218,45.381515930628126,45.38151593051301,45.38151593051897,45.3815159302804,45.381515930158265
0.385,45.48494805909285,45.48494806005378,45.48494805970204,45.48494805790891,45.484948058436515,45.48494806005382,45.48494805928248,45.484948059450126,45.48494805958379,45.484948059420944,45.48494805929207,45.484948059162,45.48494805916874,45.484948058899164,45.48494805876116
0.386,45.58826795815133,45.58826795923707,45.588267958839644,45.5882679568136,45.58826795740974,45.58826795923711,45.588267958365584,45.58826795855501,45.588267958706034,45.58826795852203,45.58826795837642,45.58826795822945,45.58826795823707,45.58826795793248,45.58826795777655
0.387,45.691475372696345,45.69147537392312,45.69147537347408,45.69147537118486,45.69147537185843,45.69147537392316,45.69147537293844,45.69147537315246,45.69147537332311,45.6914753731152,45.69147537295068,45.69147537278462,45.69147537279322,45.69147537244908,45.69147537227289
0.388,45.794570048074675,45.79457004946088,45.794570048953474,45.794570046366765,45.79457004712787,45.79457004946093,45.794570048348234,45.79457004859007,45.79457004878289,45.79457004854797,45.79457004836206,45.79457004817443,45.79457004818414,45.794570047795276,45.79457004759619
0.389,45.89755172991136,45.897551731477904,45.89755173090449,45.89755172798126,45.897551728841385,45.89755173147796,45.897551730220506,45.8975517304938,45.89755173071171,45.89755173044623,45.89755173023614,45.89755173002409,45.897551730035076,45.89755172959561,45.89755172937063
0.39,46.00042016411042,46.0004201658811,46.00042016523297,46.00042016192881,46.000420162901015,46.00042016588117,46.000420164459854,46.00042016476876,46.000420165015065,46.000420164714996,46.000420164477525,46.000420164237845,46.00042016425026,46.00042016375353,46.00042016349923
0.391,46.10317509685542,46.10317509885739,46.103175098124595,46.103175094388845,46.10317509548804,46.10317509885746,46.1031750972505,46.10317509759976,46.103175097878236,46.103175097538966,46.10317509727047,46.103175096999486,46.10317509701352,46.10317509645191,46.10317509616439
0.392,46.205816274610235,46.20581627687455,46.205816276045724,46.205816271820424,46.20581627306366,46.20581627687463,46.20581627505708,46.20581627545211,46.20581627576708,46.20581627538335,46.20581627507967,46.20581627477318,46.20581627478905,46.20581627415385,46.20581627382865
0.393,46.30834344411961,46.30834344668188,46.30834344574399,46.30834344096268,46.30834344236952,46.308343446681974,46.30834344462525,46.30834344507226,46.30834344542868,46.30834344499445,46.308343444650816,46.308343444303986,46.30834344432195,46.30834344360316,46.30834344323517
0.394,46.41075635240992,46.41075635531116,46.410756354249195,46.41075634883538,46.41075635042832,46.41075635531126,46.41075635298245,46.4107563534886,46.41075635389217,46.410756353400494,46.41075635301141,46.41075635261869,46.410756352639034,46.41075635182515,46.41075635140849
0.395,46.513054746789805,46.51305475007734,46.51305474887398,46.513054742739314,46.51305474454436,46.51305475007745,46.513054747438574,46.51305474801212,46.513054748469415,46.51305474791228,46.51305474747138,46.51305474702638,46.513054747049424,46.51305474612718,46.51305474565503
0.396,46.61523837485095,46.61523837857967,46.615238377214816,46.61523837025688,46.61523837230416,46.6152383785798,46.615238375586785,46.615238376237286,46.61523837675596,46.615238376124054,46.61523837562399,46.61523837511927,46.6152383751454,46.61523837409939,46.615238373563884
0.397,46.717306984468664,46.717306988702504,46.71730698715276,46.71730697925226,46.717306981576876,46.71730698870265,46.717306985304184,46.71730698604281,46.71730698663175,46.71730698591424,46.717306985346426,46.71730698477334,46.71730698480302,46.7173069836153,46.717306983007255
0.398,46.81926032380284,46.8192603286166,46.819260326854575,46.81926031787191,46.81926032051494,46.819260328616764,46.8192603247528,46.819260325592595,46.819260326262196,46.819260325446415,46.81926032480082,46.819260324149234,46.81926032418298,46.819260322832584,46.81926032214124
0.399,46.92109814129851,46.92109814678019,46.92109814477369,46.921098134544664,46.92109813755442,46.92109814678038,46.92109814238028,46.9210981433366,46.92109814409911,46.921098143170134,46.92109814243497,46.92109814169297,46.9210981417314,46.921098140193635,46.92109813940637
0.4,47.02282018568692,47.02282019194054,47.022820189651476,47.02282017798198,47.022820181415575,47.02282019194076,47.022820186921024,47.02282018801202,47.02282018888191,47.02282018782211,47.022820186983424,47.02282018613693,47.022820186180766,47.02282018442645,47.022820183528324
0.401,47.12442620598618,47.12442621313543,47.124426210518536,47.12442619717777,47.12442620110311,47.12442621313568,47.124426207397036,47.12442620864428,47.124426209638756,47.124426208427174,47.12442620746837,47.124426206500644,47.124426206550766,47.1244262045452,47.124426203518446
0.402,47.225915951502415,47.22591595969516,47.2259159566963,47.22591594140834,47.22591594590662,47.22591595969544,47.22591595311919,47.22591595454848,47.22591595568811,47.22591595429969,47.22591595320094,47.22591595209197,47.2259159521494,47.22591594985111,47.22591594867449
0.403,47.32728917183072,47.32728918124475,47.32728917779886,47.32728916023192,47.327289165400764,47.32728918124508,47.32728917368851,47.32728917533087,47.32728917664038,47.32728917504499,47.32728917378245,47.32728917250816,47.327289172574154,47.32728916993325,47.32728916858124
0.404,47.42854561685636,47.42854562770666,47.42854562373504,47.42854560348797,47.4285456094454,47.42854562770704,47.42854561899759,47.42854562089051,47.42854562239981,47.42854562056102,47.42854561910585,47.428545617637155,47.42854561771321,47.4285456146694,47.42854561311111
0.405,47.529685036756106,47.52968504930402,47.52968504471101,47.52968502129611,47.52968502818563,47.52968504930446,47.52968503923234,47.52968504142143,47.52968504316687,47.52968504104038,47.529685039357545,47.52968503765906,47.529685037747015,47.52968503422697,47.52968503242488
0.406,47.63070718199972,47.630707196564664,47.63070719123334,47.6307071640546,47.630707172051586,47.63070719656517,47.630707184874005,47.63070718741498,47.63070718944099,47.63070718697268,47.63070718501933,47.63070718304782,47.630707183149916,47.63070717906404,47.630707176972265
0.40700000000000003,47.731611803351804,47.73161182032606,47.73161181411283,47.731611782438236,47.73161179175807,47.73161182032665,47.731611806701544,47.731611809662844,47.73161181202399,47.73161180914738,47.731611806870916,47.73161180457328,47.73161180469227,47.73161179993051,47.73161179749272
0.40800000000000003,47.83239865187378,47.83239867174133,47.83239866446905,47.83239862739545,47.83239863830387,47.83239867174202,47.83239865579449,47.832398659260555,47.83239866202417,47.832398658657226,47.83239865599273,47.83239865330346,47.83239865344273,47.832398647869326,47.832398645016006
0.40900000000000003,47.933067478926496,47.93306750228701,47.933067493736175,47.93306745014457,47.933067462970826,47.93306750228782,47.93306748353652,47.93306748761196,47.93306749086145,47.93306748690255,47.93306748376961,47.93306748060753,47.933067480771285,47.93306747421801,47.93306747086304
0.41000000000000003,48.033618036173095,48.03361806377235,48.033618053669976,48.033618002168716,48.03361801732228,48.03361806377331,48.033618041619604,48.033618046434526,48.03361805027363,48.0336180455964,48.03361804189499,48.033618038159155,48.03361803835262,48.033618030610256,48.03361802664653
0.41100000000000003,48.13405007558274,48.13405010835133,48.13405009635678,48.13405003520934,48.13405005320117,48.13405010835247,48.13405008204938,48.134050087766134,48.1340500923243,48.134050086771026,48.13405008237634,48.134050077940785,48.13405007817049,48.134050068977984,48.13405006427185
0.41200000000000003,48.23436334943497,48.23436338853745,48.23436337422446,48.23436330125774,48.23436332272723,48.23436338853881,48.23436335715155,48.23436336397331,48.234363369412534,48.23436336278586,48.23436335754172,48.234363352248806,48.23436335252291,48.23436334155357,48.23436333593778
0.41300000000000003,48.33455761032527,48.334557657222554,48.33455764005636,48.33455755254424,48.334557578293534,48.33455765722418,48.334557619580096,48.33455762776172,48.33455763428521,48.334557626337556,48.33455762004803,48.334557613700014,48.33455761402876,48.334557600872756,48.3345575941375
0.41400000000000003,48.4346326111717,48.43463266770019,48.43463264700861,48.43463254152428,48.434632572561654,48.43463266770216,48.43463262232717,48.434632632189036,48.43463264005225,48.43463263047241,48.43463262289121,48.43463261523951,48.43463261563577,48.43463259977794,48.43463259165948
0.41500000000000004,48.53458810522331,48.53458817369523,48.5345881486319,48.53458802086069,48.53458805845568,48.5345881736976,48.534588118735726,48.53458813068122,48.534588140205784,48.5345881286019,48.534588119418935,48.53458811015057,48.53458811063056,48.534588091422265,48.53458808158852
0.41600000000000004,48.6344238460705,48.63442392940078,48.634423898898724,48.634423743401236,48.634423789154326,48.634423929403674,48.6344238625151,48.63442387705276,48.63442388864416,48.63442387452223,48.63442386334657,48.63442385206698,48.63442385265112,48.63442382927464,48.634423817306974
0.417,48.734139587657886,48.73413968952475,48.734139652237594,48.73413946215014,48.73413951808087,48.734139689528284,48.73413960776054,48.734139625532066,48.73413963970193,48.73413962243861,48.734139608776964,48.734139594988264,48.73413959570234,48.73413956712583,48.734139552495996
0.418,48.83373508430041,48.83373520934806,48.83373516357586,48.83373493023217,48.83373499889048,48.833735209352405,48.83373510897762,48.83373513079323,48.83373514818758,48.83373512699583,48.83373511022534,48.833735093298884,48.83373509417546,48.83373505909609,48.833735041137096
0.419,48.933210090703255,48.933210244797536,48.93321018839316,48.933209900847366,48.93320998545393,48.933210244802886,48.9332101211126,48.93321014799563,48.93321016943042,48.93321014331616,48.933210122650145,48.93321010179194,48.93321010287213,48.93321005964437,48.933210037513774
0.42,49.03256436198679,49.032564552537146,49.03256448278846,49.03256412721424,49.03256423183728,49.03256455254376,49.03256439959047,49.03256443283357,49.03256445933946,49.032564427047014,49.032564401491776,49.03256437569887,49.03256437703462,49.0325643235799,49.03256429621359
